time_lsl,uV
7013.409824429154,-69.0
7013.417516736846,-57.0
7013.425209044538,-50.0
7013.43290135223,-65.0
7013.440593659922,-43.0
7013.4482859676145,-67.0
7013.455978275307,-65.0
7013.463670582999,-43.0
7013.471362890691,-65.0
7013.479055198383,-43.0
7013.4867475060755,-52.0
7013.494439813768,-67.0
7013.50213212146,-45.0
7013.509824429152,-67.0
7013.517516736844,-57.0
7013.5252090445365,-57.0
7013.532901352229,-74.0
7013.540593659921,-40.0
7013.548285967613,-48.0
7013.555978275305,-38.0
7013.5636705829975,-33.0
7013.57136289069,-74.0
7013.579055198382,-57.0
7013.586747506074,-65.0
7013.594439813766,-72.0
7013.602132121458,-45.0
7013.609824429151,-65.0
7013.617516736843,-55.0
7013.625209044535,-57.0
7013.632901352227,-74.0
7013.640593659919,-40.0
7013.648285967612,-55.0
7013.655978275304,-57.0
7013.663670582996,-57.0
7013.671362890688,-86.0
7013.67905519838,50.0
7013.686747506073,308.0
7013.694439813765,457.0
7013.702132121457,291.0
7013.709824429149,-28.0
7013.717516736841,-77.0
7013.725209044534,-33.0
7013.732901352226,-89.0
7013.740593659918,-79.0
7013.74828596761,-74.0
7013.755978275302,-81.0
7013.763670582995,-77.0
7013.771362890687,-98.0
7013.779055198379,-84.0
7013.786747506071,-91.0
7013.794439813763,-96.0
7013.8021321214555,-72.0
7013.809824429148,-93.0
7013.81751673684,-81.0
7013.825209044532,-69.0
7013.832901352224,-89.0
7013.8405936599165,-38.0
7013.848285967609,-38.0
7013.855978275301,-105.0
7013.863670582993,-65.0
7013.871362890685,-19.0
7013.8790551983775,-62.0
7013.88674750607,-40.0
7013.894439813762,-14.0
7013.902132121454,-36.0
7013.909824429146,-9.0
7013.9175167368385,-9.0
7013.925209044531,-2.0
7013.932901352223,16.0
7013.940593659915,0.0
7013.948285967607,21.0
7013.9559782752995,16.0
7013.963670582992,4.0
7013.9527165121535,19.0
7013.960408819846,-14.0
7013.968101127538,-12.0
7013.97579343523,-12.0
7013.983485742922,-40.0
7013.9911780506145,-14.0
7013.998870358307,-24.0
7014.006562665999,-24.0
7014.014254973691,-2.0
7014.021947281383,-24.0
7014.0296395890755,-2.0
7014.037331896768,-7.0
7014.04502420446,-19.0
7014.052716512152,4.0
7014.060408819844,-16.0
7014.0681011275365,-7.0
7014.075793435229,2.0
7014.083485742921,-19.0
7014.091178050613,9.0
7014.098870358305,-4.0
7014.106562665997,-4.0
7014.11425497369,12.0
7014.121947281382,-19.0
7014.129639589074,0.0
7014.137331896766,7.0
7014.145024204458,-4.0
7014.152716512151,16.0
7014.160408819843,-14.0
7014.168101127535,0.0
7014.175793435227,19.0
7014.183485742919,-7.0
7014.191178050612,14.0
7014.198870358304,-2.0
7014.206562665996,-9.0
7014.214254973688,9.0
7014.22194728138,-19.0
7014.229639589073,2.0
7014.237331896765,0.0
7014.245024204457,-16.0
7014.252716512149,7.0
7014.260408819841,-21.0
7014.268101127534,-7.0
7014.275793435226,7.0
7014.283485742918,-24.0
7014.29117805061,4.0
7014.298870358302,-16.0
7014.3065626659945,-31.0
7014.314254973687,-4.0
7014.321947281379,-40.0
7014.329639589071,-26.0
7014.337331896763,-16.0
7014.3450242044555,-21.0
7014.352716512148,14.0
7014.36040881984,-16.0
7014.368101127532,-14.0
7014.375793435224,-7.0
7014.3834857429165,-40.0
7014.391178050609,-9.0
7014.398870358301,-26.0
7014.406562665993,-31.0
7014.414254973685,-4.0
7014.4219472813775,-40.0
7014.42963958907,-14.0
7014.437331896762,-14.0
7014.445024204454,-38.0
7014.452716512146,-7.0
7014.460408819838,-43.0
7014.468101127531,-45.0
7014.475793435223,26.0
7014.483485742915,224.0
7014.491178050607,529.0
7014.498870358299,505.0
7014.506562665992,180.0
7014.524696574654,-38.0
7014.532388882346,-74.0
7014.540081190038,-28.0
7014.54777349773,-69.0
7014.5554658054225,-89.0
7014.563158113115,-33.0
7014.570850420807,-72.0
7014.578542728499,-62.0
7014.586235036191,-36.0
7014.5939273438835,-72.0
7014.601619651576,-36.0
7014.609311959268,-48.0
7014.61700426696,-57.0
7014.624696574652,-24.0
7014.6323888823445,-55.0
7014.640081190037,-26.0
7014.647773497729,-21.0
7014.655465805421,-40.0
7014.663158113113,0.0
7014.670850420805,-21.0
7014.678542728498,-9.0
7014.68623503619,16.0
7014.693927343882,-9.0
7014.701619651574,28.0
7014.709311959266,19.0
7014.717004266959,16.0
7014.724696574651,52.0
7014.732388882343,16.0
7014.740081190035,43.0
7014.747773497727,50.0
7014.75546580542,21.0
7014.763158113112,55.0
7014.770850420804,26.0
7014.778542728496,28.0
7014.786235036188,43.0
7014.793927343881,-2.0
7014.801619651573,19.0
7014.809311959265,4.0
7014.817004266957,-7.0
7014.824696574649,19.0
7014.832388882342,-19.0
7014.840081190034,4.0
7014.847773497726,12.0
7014.855465805418,-14.0
7014.86315811311,16.0
7014.8708504208025,-7.0
7014.878542728495,0.0
7014.886235036187,19.0
7014.893927343879,-16.0
7014.901619651571,14.0
7014.9093119592635,4.0
7014.917004266956,-7.0
7014.924696574648,19.0
7014.93238888234,-16.0
7014.940081190032,4.0
7014.9477734977245,12.0
7014.955465805417,-16.0
7014.963158113109,14.0
7014.970850420801,-12.0
7014.978542728493,-12.0
7014.9862350361855,12.0
7014.993927343878,-16.0
7015.00161965157,9.0
7015.009311959262,0.0
7015.017004266954,-9.0
7015.024696574646,19.0
7015.032388882339,-16.0
7015.040081190031,-4.0
7015.047773497723,0.0
7015.055465805415,-24.0
7015.063158113107,9.0
7015.0708504208,-14.0
7015.078542728492,-14.0
7015.0629351166535,4.0
7015.070627424346,-28.0
7015.078319732038,0.0
7015.08601203973,-7.0
7015.093704347422,-21.0
7015.1013966551145,4.0
7015.109088962807,-31.0
7015.116781270499,-12.0
7015.124473578191,-2.0
7015.132165885883,-38.0
7015.1398581935755,-9.0
7015.147550501268,-24.0
7015.15524280896,-9.0
7015.162935116652,24.0
7015.170627424344,-9.0
7015.1783197320365,7.0
7015.186012039729,-2.0
7015.193704347421,-19.0
7015.201396655113,7.0
7015.209088962805,-19.0
7015.216781270497,-2.0
7015.22447357819,7.0
7015.232165885882,-24.0
7015.239858193574,4.0
7015.247550501266,-12.0
7015.255242808958,-12.0
7015.262935116651,9.0
7015.270627424343,-19.0
7015.278319732035,-7.0
7015.286012039727,9.0
7015.293704347419,180.0
7015.301396655112,496.0
7015.309088962804,541.0
7015.316781270496,296.0
7015.324473578188,26.0
7015.33216588588,-48.0
7015.339858193573,-2.0
7015.347550501265,-55.0
7015.355242808957,-67.0
7015.362935116649,-31.0
7015.370627424341,-65.0
7015.378319732034,-43.0
7015.386012039726,-36.0
7015.393704347418,-52.0
7015.40139665511,-31.0
7015.409088962802,-55.0
7015.4167812704945,-40.0
7015.424473578187,-28.0
7015.432165885879,-52.0
7015.439858193571,-26.0
7015.447550501263,-40.0
7015.4552428089555,-40.0
7015.462935116648,-19.0
7015.47062742434,-45.0
7015.478319732032,-16.0
7015.486012039724,-12.0
7015.4937043474165,-31.0
7015.501396655109,-2.0
7015.509088962801,-16.0
7015.516781270493,-4.0
7015.524473578185,4.0
7015.5321658858775,-21.0
7015.53985819357,0.0
7015.547550501262,-14.0
7015.555242808954,-21.0
7015.562935116646,-4.0
7015.570627424338,-33.0
7015.578319732031,-26.0
7015.586012039723,-43.0
7015.593704347415,-77.0
7015.601396655107,-65.0
7015.609088962799,-98.0
7015.616781270492,-101.0
7015.642484824653,-96.0
7015.650177132346,-125.0
7015.657869440038,-105.0
7015.66556174773,-125.0
7015.673254055422,-137.0
7015.680946363114,-115.0
7015.6886386708065,-146.0
7015.696330978499,-139.0
7015.704023286191,-137.0
7015.711715593883,-151.0
7015.719407901575,-137.0
7015.7271002092675,-161.0
7015.73479251696,-146.0
7015.742484824652,-139.0
7015.750177132344,-171.0
7015.757869440036,-139.0
7015.7655617477285,-146.0
7015.773254055421,-156.0
7015.780946363113,-134.0
7015.788638670805,-158.0
7015.796330978497,-139.0
7015.8040232861895,-146.0
7015.811715593882,-171.0
7015.819407901574,-139.0
7015.827100209266,-158.0
7015.834792516958,-156.0
7015.8424848246505,-144.0
7015.850177132343,-166.0
7015.857869440035,-139.0
7015.865561747727,-156.0
7015.873254055419,-166.0
7015.880946363111,-142.0
7015.888638670804,-168.0
7015.896330978496,-144.0
7015.904023286188,-142.0
7015.91171559388,-163.0
7015.919407901572,-137.0
7015.927100209265,-163.0
7015.934792516957,-156.0
7015.942484824649,-139.0
7015.950177132341,-173.0
7015.957869440033,-146.0
7015.965561747726,-161.0
7015.973254055418,-171.0
7015.98094636311,-139.0
7015.988638670802,-171.0
7015.996330978494,-161.0
7016.004023286187,-166.0
7016.011715593879,-192.0
7016.019407901571,-163.0
7016.027100209263,-185.0
7016.034792516955,-175.0
7016.0424848246475,-166.0
7016.05017713234,-211.0
7016.057869440032,-190.0
7016.065561747724,-207.0
7016.073254055416,-221.0
7016.0809463631085,-195.0
7016.088638670801,-226.0
7016.096330978493,-224.0
7016.104023286185,-228.0
7016.111715593877,-144.0
7016.1194079015695,151.0
7016.127100209262,308.0
7016.134792516954,142.0
7016.142484824646,-154.0
7016.150177132338,-286.0
7016.1578694400305,-226.0
7016.165561747723,-264.0
7016.173254055415,-303.0
7016.180946363107,-262.0
7016.188638670799,-298.0
7016.1963309784915,-296.0
7016.246911282653,-289.0
7016.254603590345,-305.0
7016.262295898037,-274.0
7016.2699882057295,-293.0
7016.277680513422,-289.0
7016.285372821114,-264.0
7016.293065128806,-286.0
7016.300757436498,-257.0
7016.3084497441905,-260.0
7016.316142051883,-269.0
7016.323834359575,-240.0
7016.331526667267,-257.0
7016.339218974959,-233.0
7016.3469112826515,-219.0
7016.354603590344,-233.0
7016.362295898036,-197.0
7016.369988205728,-207.0
7016.37768051342,-199.0
7016.3853728211125,-173.0
7016.393065128805,-192.0
7016.400757436497,-168.0
7016.408449744189,-171.0
7016.416142051881,-173.0
7016.423834359573,-146.0
7016.431526667266,-178.0
7016.439218974958,-163.0
7016.44691128265,-161.0
7016.454603590342,-195.0
7016.462295898034,-178.0
7016.469988205727,-199.0
7016.477680513419,-202.0
7016.485372821111,-187.0
7016.493065128803,-216.0
7016.500757436495,-187.0
7016.508449744188,-190.0
7016.51614205188,-202.0
7016.523834359572,-173.0
7016.531526667264,-195.0
7016.539218974956,-178.0
7016.546911282649,-166.0
7016.554603590341,-183.0
7016.562295898033,-154.0
7016.569988205725,-163.0
7016.577680513417,-158.0
7016.58537282111,-134.0
7016.593065128802,-156.0
7016.600757436494,-132.0
7016.608449744186,-134.0
7016.616142051878,-142.0
7016.6238343595705,-113.0
7016.631526667263,-134.0
7016.639218974955,-115.0
7016.646911282647,-103.0
7016.654603590339,-125.0
7016.6622958980315,-96.0
7016.669988205724,-101.0
7016.677680513416,-89.0
7016.685372821108,-67.0
7016.6930651288,-89.0
7016.7007574364925,-65.0
7016.708449744185,-67.0
7016.716142051877,-77.0
7016.723834359569,-50.0
7016.731526667261,-77.0
7016.7392189749535,-62.0
7016.746911282646,-50.0
7016.754603590338,-72.0
7016.76229589803,-43.0
7016.769988205722,-55.0
7016.777680513414,-55.0
7016.785372821107,-33.0
7016.793065128799,-65.0
7016.800757436491,-43.0
7016.742020887654,-38.0
7016.749713195346,-40.0
7016.757405503038,2.0
7016.76509781073,-12.0
7016.772790118423,-2.0
7016.780482426115,0.0
7016.788174733807,-24.0
7016.795867041499,4.0
7016.803559349191,-12.0
7016.8112516568835,-14.0
7016.818943964576,12.0
7016.826636272268,-12.0
7016.83432857996,7.0
7016.842020887652,12.0
7016.8497131953445,0.0
7016.857405503037,26.0
7016.865097810729,4.0
7016.872790118421,0.0
7016.880482426113,-2.0
7016.8881747338055,60.0
7016.895867041498,339.0
7016.90355934919,568.0
7016.911251656882,476.0
7016.918943964574,161.0
7016.9266362722665,-38.0
7016.934328579959,4.0
7016.942020887651,0.0
7016.949713195343,-45.0
7016.957405503035,-4.0
7016.9650978107275,-14.0
7016.97279011842,-16.0
7016.980482426112,2.0
7016.988174733804,-9.0
7016.995867041496,14.0
7017.003559349188,12.0
7017.011251656881,16.0
7017.018943964573,43.0
7017.026636272265,24.0
7017.034328579957,38.0
7017.042020887649,45.0
7017.049713195342,36.0
7017.057405503034,60.0
7017.065097810726,55.0
7017.072790118418,69.0
7017.08048242611,86.0
7017.088174733803,72.0
7017.095867041495,98.0
7017.103559349187,98.0
7017.111251656879,101.0
7017.118943964571,122.0
7017.126636272264,105.0
7017.134328579956,115.0
7017.142020887648,115.0
7017.14971319534,103.0
7017.157405503032,120.0
7017.165097810725,105.0
7017.172790118417,105.0
7017.180482426109,110.0
7017.188174733801,89.0
7017.195867041493,98.0
7017.2035593491855,86.0
7017.211251656878,81.0
7017.21894396457,103.0
7017.226636272262,86.0
7017.234328579954,101.0
7017.2420208876465,105.0
7017.249713195339,98.0
7017.257405503031,122.0
7017.265097810723,110.0
7017.272790118415,118.0
7017.2804824261075,125.0
7017.2881747338,105.0
7017.295867041492,120.0
7017.290379678654,108.0
7017.298071986346,101.0
7017.305764294038,118.0
7017.313456601731,93.0
7017.321148909423,103.0
7017.328841217115,105.0
7017.336533524807,84.0
7017.344225832499,101.0
7017.351918140192,89.0
7017.359610447884,86.0
7017.367302755576,93.0
7017.374995063268,77.0
7017.38268737096,86.0
7017.390379678653,74.0
7017.398071986345,67.0
7017.405764294037,79.0
7017.413456601729,60.0
7017.421148909421,67.0
7017.428841217114,67.0
7017.436533524806,57.0
7017.444225832498,72.0
7017.45191814019,50.0
7017.459610447882,55.0
7017.467302755575,67.0
7017.474995063267,43.0
7017.482687370959,52.0
7017.490379678651,50.0
7017.498071986343,45.0
7017.5057642940355,60.0
7017.513456601728,36.0
7017.52114890942,40.0
7017.528841217112,43.0
7017.536533524804,24.0
7017.5442258324965,43.0
7017.551918140189,45.0
7017.559610447881,65.0
7017.567302755573,79.0
7017.574995063265,50.0
7017.5826873709575,60.0
7017.59037967865,50.0
7017.598071986342,38.0
7017.605764294034,55.0
7017.613456601726,40.0
7017.6211489094185,50.0
7017.628841217111,55.0
7017.636533524803,43.0
7017.644225832495,57.0
7017.651918140187,40.0
7017.6596104478795,43.0
7017.667302755572,55.0
7017.674995063264,21.0
7017.682687370956,36.0
7017.690379678648,163.0
7017.69807198634,433.0
7017.705764294033,604.0
7017.713456601725,399.0
7017.721148909417,98.0
7017.728841217109,9.0
7017.736533524801,33.0
7017.744225832494,24.0
7017.751918140186,-16.0
7017.759610447878,0.0
7017.76730275557,21.0
7017.774995063262,-2.0
7017.782687370955,16.0
7017.790379678647,16.0
7017.798071986339,12.0
7017.805764294031,38.0
7017.813456601723,19.0
7017.821148909416,26.0
7017.828841217108,43.0
7017.8365335248,40.0
7017.844225832492,57.0
7017.884282137654,40.0
7017.891974445346,55.0
7017.899666753038,84.0
7017.90735906073,65.0
7017.915051368423,89.0
7017.922743676115,103.0
7017.930435983807,105.0
7017.938128291499,137.0
7017.945820599191,137.0
7017.953512906884,158.0
7017.961205214576,171.0
7017.968897522268,154.0
7017.97658982996,171.0
7017.984282137652,163.0
7017.991974445345,168.0
7017.999666753037,175.0
7018.007359060729,146.0
7018.015051368421,156.0
7018.022743676113,149.0
7018.030435983806,130.0
7018.038128291498,137.0
7018.04582059919,115.0
7018.053512906882,118.0
7018.061205214574,122.0
7018.0688975222665,115.0
7018.076589829959,144.0
7018.084282137651,142.0
7018.091974445343,142.0
7018.099666753035,156.0
7018.1073590607275,144.0
7018.11505136842,161.0
7018.122743676112,158.0
7018.130435983804,144.0
7018.138128291496,156.0
7018.1458205991885,134.0
7018.153512906881,139.0
7018.161205214573,144.0
7018.168897522265,122.0
7018.176589829957,137.0
7018.1842821376495,122.0
7018.191974445342,118.0
7018.199666753034,125.0
7018.207359060726,103.0
7018.215051368418,115.0
7018.22274367611,108.0
7018.230435983803,93.0
7018.238128291495,110.0
7018.245820599187,91.0
7018.253512906879,91.0
7018.261205214571,93.0
7018.268897522264,69.0
7018.276589829956,84.0
7018.284282137648,77.0
7018.29197444534,69.0
7018.299666753032,77.0
7018.307359060725,55.0
7018.315051368417,67.0
7018.322743676109,62.0
7018.330435983801,50.0
7018.338128291493,62.0
7018.345820599186,45.0
7018.353512906878,48.0
7018.36120521457,48.0
7018.368897522262,28.0
7018.376589829954,48.0
7018.384282137647,43.0
7018.391974445339,48.0
7018.399666753031,69.0
7018.407359060723,45.0
7018.415051368415,43.0
7018.4227436761075,36.0
7018.4304359838,21.0
7018.438128291492,36.0
7018.453771220653,16.0
7018.461463528345,19.0
7018.469155836037,26.0
7018.4768481437295,4.0
7018.484540451422,14.0
7018.492232759114,7.0
7018.499925066806,7.0
7018.507617374498,16.0
7018.5153096821905,-21.0
7018.523001989883,-24.0
7018.530694297575,72.0
7018.538386605267,317.0
7018.546078912959,529.0
7018.5537712206515,373.0
7018.561463528344,65.0
7018.569155836036,-38.0
7018.576848143728,-21.0
7018.58454045142,-36.0
7018.592232759112,-72.0
7018.599925066805,-50.0
7018.607617374497,-38.0
7018.615309682189,-72.0
7018.623001989881,-52.0
7018.630694297573,-45.0
7018.638386605266,-60.0
7018.646078912958,-43.0
7018.65377122065,-50.0
7018.661463528342,-43.0
7018.669155836034,-31.0
7018.676848143727,-48.0
7018.684540451419,-33.0
7018.692232759111,-33.0
7018.699925066803,-31.0
7018.707617374495,-16.0
7018.715309682188,-31.0
7018.72300198988,-14.0
7018.730694297572,-4.0
7018.738386605264,-14.0
7018.746078912956,9.0
7018.753771220649,0.0
7018.761463528341,2.0
7018.769155836033,14.0
7018.776848143725,-4.0
7018.784540451417,7.0
7018.7922327591095,-2.0
7018.799925066802,-7.0
7018.807617374494,0.0
7018.815309682186,-24.0
7018.823001989878,-21.0
7018.8306942975705,-31.0
7018.838386605263,-55.0
7018.846078912955,-50.0
7018.853771220647,-74.0
7018.861463528339,-77.0
7018.8691558360315,-77.0
7018.876848143724,-103.0
7018.884540451416,-93.0
7018.892232759108,-98.0
7018.8999250668,-101.0
7018.9076173744925,-86.0
7018.915309682185,-103.0
7018.923001989877,-93.0
7018.930694297569,-91.0
7018.938386605261,-110.0
7018.946078912953,-96.0
7018.953771220646,-105.0
7018.961463528338,-105.0
7018.96915583603,-96.0
7018.976848143722,-108.0
7018.984540451414,-96.0
7018.992232759107,-101.0
7018.999925066799,-103.0
7019.007617374491,-96.0
7018.995257929653,-120.0
7019.002950237345,-108.0
7019.010642545038,-105.0
7019.01833485273,-122.0
7019.026027160422,-105.0
7019.033719468114,-115.0
7019.041411775806,-118.0
7019.049104083499,-110.0
7019.056796391191,-125.0
7019.064488698883,-115.0
7019.072181006575,-130.0
7019.079873314267,-139.0
7019.08756562196,-125.0
7019.095257929652,-137.0
7019.102950237344,-127.0
7019.110642545036,-125.0
7019.118334852728,-142.0
7019.126027160421,-132.0
7019.133719468113,-146.0
7019.141411775805,-144.0
7019.149104083497,-130.0
7019.156796391189,-134.0
7019.1644886988815,-113.0
7019.172181006574,-122.0
7019.179873314266,-137.0
7019.187565621958,-130.0
7019.19525792965,-154.0
7019.2029502373425,-144.0
7019.210642545035,-132.0
7019.218334852727,-144.0
7019.226027160419,-134.0
7019.233719468111,-146.0
7019.2414117758035,-142.0
7019.249104083496,-132.0
7019.256796391188,-149.0
7019.26448869888,-134.0
7019.272181006572,-146.0
7019.2798733142645,-168.0
7019.287565621957,-110.0
7019.295257929649,77.0
7019.302950237341,346.0
7019.310642545033,317.0
7019.3183348527255,-12.0
7019.326027160418,-163.0
7019.33371946811,-125.0
7019.341411775802,-127.0
7019.349104083494,-161.0
7019.356796391186,-158.0
7019.364488698879,-130.0
7019.372181006571,-142.0
7019.379873314263,-142.0
7019.387565621955,-115.0
7019.395257929647,-127.0
7019.40295023734,-115.0
7019.410642545032,-103.0
7019.418334852724,-115.0
7019.426027160416,-96.0
7019.433719468108,-98.0
7019.441411775801,-86.0
7019.449104083493,-72.0
7019.456796391185,-84.0
7019.464488698877,-57.0
7019.472181006569,-48.0
7019.479873314262,-50.0
7019.487565621954,-26.0
7019.495257929646,-31.0
7019.502950237338,-16.0
7019.51064254503,-7.0
7019.518334852723,-14.0
7019.526027160415,9.0
7019.533719468107,4.0
7019.541411775799,7.0
7019.549104083491,21.0
7019.536721012653,7.0
7019.5444133203455,21.0
7019.552105628038,14.0
7019.55979793573,0.0
7019.567490243422,7.0
7019.575182551114,-16.0
7019.5828748588065,-19.0
7019.590567166499,-24.0
7019.598259474191,-43.0
7019.605951781883,-24.0
7019.613644089575,-31.0
7019.621336397267,-33.0
7019.62902870496,-14.0
7019.636721012652,-24.0
7019.644413320344,-9.0
7019.652105628036,-9.0
7019.659797935728,-14.0
7019.667490243421,4.0
7019.675182551113,-12.0
7019.682874858805,-2.0
7019.690567166497,7.0
7019.698259474189,-4.0
7019.705951781882,12.0
7019.713644089574,4.0
7019.721336397266,7.0
7019.729028704958,21.0
7019.73672101265,7.0
7019.744413320343,24.0
7019.752105628035,24.0
7019.759797935727,14.0
7019.767490243419,31.0
7019.775182551111,16.0
7019.782874858804,21.0
7019.790567166496,28.0
7019.798259474188,14.0
7019.80595178188,31.0
7019.813644089572,28.0
7019.8213363972645,28.0
7019.829028704957,45.0
7019.836721012649,28.0
7019.844413320341,45.0
7019.852105628033,45.0
7019.8597979357255,31.0
7019.867490243418,48.0
7019.87518255111,38.0
7019.882874858802,45.0
7019.890567166494,50.0
7019.8982594741865,36.0
7019.905951781879,52.0
7019.913644089571,43.0
7019.921336397263,40.0
7019.929028704955,69.0
7019.9367210126475,69.0
7019.94441332034,93.0
7019.952105628032,98.0
7019.959797935724,89.0
7019.967490243416,101.0
7019.975182551108,89.0
7019.982874858801,93.0
7019.990567166493,96.0
7019.998259474185,79.0
7020.005951781877,91.0
7020.013644089569,79.0
7020.021336397262,72.0
7020.029028704954,79.0
7020.036721012646,57.0
7020.044413320338,67.0
7020.05210562803,65.0
7020.059797935723,45.0
7020.067490243415,48.0
7020.075182551107,105.0
7020.082874858799,361.0
7020.090567166491,607.0
7020.116760637653,505.0
7020.124452945345,192.0
7020.132145253037,7.0
7020.13983756073,26.0
7020.147529868422,31.0
7020.155222176114,-21.0
7020.162914483806,7.0
7020.170606791498,19.0
7020.178299099191,-9.0
7020.185991406883,9.0
7020.193683714575,7.0
7020.201376022267,7.0
7020.209068329959,14.0
7020.2167606376515,2.0
7020.224452945344,16.0
7020.232145253036,12.0
7020.239837560728,12.0
7020.24752986842,26.0
7020.2552221761125,12.0
7020.262914483805,26.0
7020.270606791497,31.0
7020.278299099189,26.0
7020.285991406881,45.0
7020.2936837145735,38.0
7020.301376022266,48.0
7020.309068329958,57.0
7020.31676063765,45.0
7020.324452945342,65.0
7020.3321452530345,62.0
7020.339837560727,57.0
7020.347529868419,72.0
7020.355222176111,55.0
7020.362914483803,65.0
7020.370606791495,65.0
7020.378299099188,52.0
7020.38599140688,60.0
7020.393683714572,38.0
7020.401376022264,31.0
7020.409068329956,31.0
7020.416760637649,12.0
7020.424452945341,21.0
7020.432145253033,12.0
7020.439837560725,7.0
7020.447529868417,21.0
7020.45522217611,2.0
7020.462914483802,12.0
7020.470606791494,14.0
7020.478299099186,0.0
7020.485991406878,16.0
7020.493683714571,7.0
7020.501376022263,7.0
7020.509068329955,12.0
7020.516760637647,-4.0
7020.524452945339,14.0
7020.532145253032,4.0
7020.539837560724,0.0
7020.547529868416,14.0
7020.555222176108,0.0
7020.5629144838,7.0
7020.5706067914925,9.0
7020.578299099185,2.0
7020.585991406877,16.0
7020.593683714569,0.0
7020.601376022261,4.0
7020.6090683299535,14.0
7020.616760637646,-4.0
7020.624452945338,12.0
7020.63214525303,2.0
7020.639837560722,-7.0
7020.6475298684145,12.0
7020.655222176107,-7.0
7020.662914483799,0.0
7020.670606791491,4.0
7020.642707824654,-12.0
7020.6504001323465,0.0
7020.658092440039,-12.0
7020.665784747731,-9.0
7020.673477055423,2.0
7020.681169363115,-16.0
7020.6888616708075,-7.0
7020.6965539785,-14.0
7020.704246286192,-19.0
7020.711938593884,-7.0
7020.719630901576,-28.0
7020.727323209268,-24.0
7020.735015516961,-14.0
7020.742707824653,-19.0
7020.750400132345,9.0
7020.758092440037,0.0
7020.765784747729,-7.0
7020.773477055422,-4.0
7020.781169363114,-26.0
7020.788861670806,-12.0
7020.796553978498,-12.0
7020.80424628619,-24.0
7020.811938593883,-12.0
7020.819630901575,-26.0
7020.827323209267,-16.0
7020.835015516959,-16.0
7020.842707824651,-28.0
7020.850400132344,-9.0
7020.858092440036,-26.0
7020.865784747728,-40.0
7020.87347705542,-24.0
7020.881169363112,93.0
7020.8888616708045,387.0
7020.896553978497,539.0
7020.904246286189,339.0
7020.911938593881,43.0
7020.919630901573,-67.0
7020.9273232092655,-24.0
7020.935015516958,-50.0
7020.94270782465,-86.0
7020.950400132342,-45.0
7020.958092440034,-57.0
7020.9657847477265,-65.0
7020.973477055419,-45.0
7020.981169363111,-60.0
7020.988861670803,-48.0
7020.996553978495,-45.0
7021.0042462861875,-50.0
7021.01193859388,-36.0
7021.019630901572,-48.0
7021.027323209264,-38.0
7021.035015516956,-28.0
7021.0427078246485,-38.0
7021.050400132341,-19.0
7021.058092440033,-24.0
7021.065784747725,-19.0
7021.073477055417,0.0
7021.081169363109,-9.0
7021.088861670802,7.0
7021.096553978494,12.0
7021.104246286186,12.0
7021.111938593878,31.0
7021.11963090157,19.0
7021.127323209263,28.0
7021.135015516955,36.0
7021.142707824647,21.0
7021.150400132339,38.0
7021.158092440031,31.0
7021.165784747724,24.0
7021.173477055416,28.0
7021.181169363108,2.0
7021.1888616708,7.0
7021.196553978492,-2.0
7021.251106699654,-14.0
7021.258799007346,-4.0
7021.266491315038,-24.0
7021.274183622731,-16.0
7021.281875930423,-7.0
7021.289568238115,-21.0
7021.297260545807,-9.0
7021.304952853499,-19.0
7021.3126451611915,-16.0
7021.320337468884,-2.0
7021.328029776576,-21.0
7021.335722084268,-9.0
7021.34341439196,-7.0
7021.3511066996525,-14.0
7021.358799007345,0.0
7021.366491315037,-14.0
7021.374183622729,-9.0
7021.381875930421,-2.0
7021.3895682381135,-14.0
7021.397260545806,2.0
7021.404952853498,-7.0
7021.41264516119,-9.0
7021.420337468882,0.0
7021.4280297765745,-19.0
7021.435722084267,-7.0
7021.443414391959,-4.0
7021.451106699651,-14.0
7021.458799007343,2.0
7021.4664913150355,-16.0
7021.474183622728,-12.0
7021.48187593042,-2.0
7021.489568238112,-16.0
7021.497260545804,-7.0
7021.504952853496,-19.0
7021.512645161189,-21.0
7021.520337468881,-4.0
7021.528029776573,-24.0
7021.535722084265,-16.0
7021.543414391957,-19.0
7021.55110669965,-31.0
7021.558799007342,-16.0
7021.566491315034,-28.0
7021.574183622726,-21.0
7021.581875930418,-14.0
7021.589568238111,-33.0
7021.597260545803,-24.0
7021.604952853495,-33.0
7021.612645161187,-33.0
7021.620337468879,-7.0
7021.628029776572,-14.0
7021.635722084264,-4.0
7021.643414391956,-19.0
7021.651106699648,-36.0
7021.65879900734,-24.0
7021.6664913150325,-38.0
7021.674183622725,-36.0
7021.681875930417,-28.0
7021.689568238109,-45.0
7021.697260545801,-33.0
7021.7049528534935,-40.0
7021.712645161186,-45.0
7021.720337468878,-33.0
7021.72802977657,-48.0
7021.735722084262,-40.0
7021.7434143919545,-57.0
7021.751106699647,-50.0
7021.758799007339,144.0
7021.766491315031,411.0
7021.774183622723,486.0
7021.7818759304155,240.0
7021.789568238108,-43.0
7021.7972605458,-65.0
7021.804952853492,-48.0
7021.894118949653,-93.0
7021.901811257345,-93.0
7021.909503565037,-86.0
7021.917195872729,-79.0
7021.9248881804215,-81.0
7021.932580488114,-81.0
7021.940272795806,-67.0
7021.947965103498,-81.0
7021.95565741119,-77.0
7021.9633497188825,-65.0
7021.971042026575,-74.0
7021.978734334267,-60.0
7021.986426641959,-65.0
7021.994118949651,-67.0
7022.001811257343,-48.0
7022.009503565036,-55.0
7022.017195872728,-43.0
7022.02488818042,-36.0
7022.032580488112,-38.0
7022.040272795804,-19.0
7022.047965103497,-21.0
7022.055657411189,-7.0
7022.063349718881,-4.0
7022.071042026573,-21.0
7022.078734334265,-4.0
7022.086426641958,-9.0
7022.09411894965,-16.0
7022.101811257342,-2.0
7022.109503565034,-21.0
7022.117195872726,-24.0
7022.124888180419,-33.0
7022.132580488111,-52.0
7022.140272795803,-48.0
7022.147965103495,-69.0
7022.155657411187,-81.0
7022.1633497188795,-86.0
7022.171042026572,-110.0
7022.178734334264,-98.0
7022.186426641956,-103.0
7022.194118949648,-113.0
7022.2018112573405,-103.0
7022.209503565033,-120.0
7022.217195872725,-118.0
7022.224888180417,-115.0
7022.232580488109,-127.0
7022.2402727958015,-115.0
7022.247965103494,-132.0
7022.255657411186,-125.0
7022.263349718878,-118.0
7022.27104202657,-146.0
7022.2787343342625,-137.0
7022.286426641955,-142.0
7022.294118949647,-154.0
7022.301811257339,-142.0
7022.309503565031,-163.0
7022.3171958727235,-163.0
7022.324888180416,-163.0
7022.332580488108,-173.0
7022.3402727958,-154.0
7022.347965103492,-173.0
7022.355657411184,-171.0
7022.363349718877,-158.0
7022.371042026569,-190.0
7022.378734334261,-168.0
7022.386426641953,-168.0
7022.394118949645,-180.0
7022.401811257338,-166.0
7022.40950356503,-187.0
7022.417195872722,-168.0
7022.424888180414,-166.0
7022.432580488106,-197.0
7022.440272795799,-173.0
7022.447965103491,-185.0
7022.394162116654,-187.0
7022.401854424346,-168.0
7022.4095467320385,-195.0
7022.417239039731,-175.0
7022.424931347423,-183.0
7022.432623655115,-207.0
7022.440315962807,-190.0
7022.4480082704995,-202.0
7022.455700578192,-183.0
7022.463392885884,-171.0
7022.471085193576,-185.0
7022.478777501268,-163.0
7022.4864698089605,-197.0
7022.494162116653,-207.0
7022.501854424345,-187.0
7022.509546732037,-219.0
7022.517239039729,-199.0
7022.524931347421,-197.0
7022.532623655114,-209.0
7022.540315962806,-187.0
7022.548008270498,-209.0
7022.55570057819,-197.0
7022.563392885882,-185.0
7022.571085193575,-211.0
7022.578777501267,-214.0
7022.586469808959,-221.0
7022.594162116651,-55.0
7022.601854424343,250.0
7022.609546732036,313.0
7022.617239039728,67.0
7022.62493134742,-197.0
7022.632623655112,-209.0
7022.640315962804,-154.0
7022.648008270497,-224.0
7022.655700578189,-211.0
7022.663392885881,-173.0
7022.671085193573,-199.0
7022.678777501265,-173.0
7022.686469808958,-168.0
7022.69416211665,-171.0
7022.701854424342,-163.0
7022.709546732034,-178.0
7022.717239039726,-146.0
7022.7249313474185,-139.0
7022.732623655111,-149.0
7022.740315962803,-122.0
7022.748008270495,-132.0
7022.755700578187,-113.0
7022.7633928858795,-101.0
7022.771085193572,-113.0
7022.778777501264,-81.0
7022.786469808956,-86.0
7022.794162116648,-79.0
7022.8018544243405,-52.0
7022.809546732033,-69.0
7022.817239039725,-38.0
7022.824931347417,-28.0
7022.832623655109,-40.0
7022.8403159628015,-21.0
7022.848008270494,-38.0
7022.855700578186,-21.0
7022.863392885878,-16.0
7022.87108519357,-43.0
7022.878777501262,-14.0
7022.886469808955,-28.0
7022.894162116647,-43.0
7022.901854424339,-43.0
7022.909546732031,-79.0
7022.917239039723,-57.0
7022.924931347416,-55.0
7022.932623655108,-72.0
7022.9403159628,-48.0
7022.948008270492,-65.0
7023.024116616654,-57.0
7023.0318089243465,-45.0
7023.039501232039,-65.0
7023.047193539731,-40.0
7023.054885847423,-50.0
7023.062578155115,-48.0
7023.0702704628075,-26.0
7023.0779627705,-48.0
7023.085655078192,-31.0
7023.093347385884,-31.0
7023.101039693576,-48.0
7023.108732001268,-21.0
7023.116424308961,-38.0
7023.124116616653,-26.0
7023.131808924345,-14.0
7023.139501232037,-33.0
7023.147193539729,-9.0
7023.154885847422,-16.0
7023.162578155114,-19.0
7023.170270462806,-2.0
7023.177962770498,-26.0
7023.18565507819,-4.0
7023.193347385883,2.0
7023.201039693575,-9.0
7023.208732001267,14.0
7023.216424308959,-7.0
7023.224116616651,2.0
7023.231808924344,16.0
7023.239501232036,-9.0
7023.247193539728,7.0
7023.25488584742,0.0
7023.262578155112,2.0
7023.270270462805,19.0
7023.277962770497,-7.0
7023.285655078189,19.0
7023.293347385881,19.0
7023.301039693573,-2.0
7023.3087320012655,26.0
7023.316424308958,7.0
7023.32411661665,9.0
7023.331808924342,16.0
7023.339501232034,-4.0
7023.3471935397265,26.0
7023.354885847419,26.0
7023.362578155111,28.0
7023.370270462803,48.0
7023.377962770495,14.0
7023.3856550781875,26.0
7023.39334738588,28.0
7023.401039693572,19.0
7023.408732001264,50.0
7023.416424308956,26.0
7023.4241166166485,33.0
7023.431808924341,38.0
7023.439501232033,9.0
7023.447193539725,43.0
7023.454885847417,28.0
7023.462578155109,21.0
7023.470270462802,38.0
7023.477962770494,-4.0
7023.485655078186,103.0
7023.493347385878,378.0
7023.50103969357,599.0
7023.508732001263,527.0
7023.516424308955,158.0
7023.524116616647,-14.0
7023.531808924339,28.0
7023.539501232031,-9.0
7023.547193539724,-16.0
7023.554885847416,-12.0
7023.562578155108,-9.0
7023.5702704628,2.0
7023.577962770492,-24.0
7023.463585783653,0.0
7023.471278091345,2.0
7023.478970399037,-16.0
7023.4866627067295,12.0
7023.494355014422,-14.0
7023.502047322114,-4.0
7023.509739629806,16.0
7023.517431937498,-12.0
7023.52512424519,14.0
7023.532816552883,9.0
7023.540508860575,4.0
7023.548201168267,31.0
7023.555893475959,0.0
7023.563585783651,26.0
7023.571278091344,36.0
7023.578970399036,21.0
7023.586662706728,60.0
7023.59435501442,40.0
7023.602047322112,45.0
7023.609739629805,62.0
7023.617431937497,33.0
7023.625124245189,67.0
7023.632816552881,52.0
7023.640508860573,45.0
7023.648201168266,77.0
7023.655893475958,40.0
7023.66358578365,48.0
7023.671278091342,43.0
7023.678970399034,14.0
7023.686662706727,33.0
7023.694355014419,0.0
7023.702047322111,4.0
7023.709739629803,21.0
7023.717431937495,-12.0
7023.7251242451875,16.0
7023.73281655288,7.0
7023.740508860572,-4.0
7023.748201168264,24.0
7023.755893475956,-9.0
7023.7635857836485,4.0
7023.771278091341,12.0
7023.778970399033,-12.0
7023.786662706725,16.0
7023.794355014417,-9.0
7023.8020473221095,-4.0
7023.809739629802,16.0
7023.817431937494,-14.0
7023.825124245186,12.0
7023.832816552878,0.0
7023.8405088605705,-7.0
7023.848201168263,19.0
7023.855893475955,-19.0
7023.863585783647,-7.0
7023.871278091339,2.0
7023.8789703990315,-24.0
7023.886662706724,4.0
7023.894355014416,-19.0
7023.902047322108,-14.0
7023.9097396298,4.0
7023.917431937492,-31.0
7023.925124245185,-4.0
7023.932816552877,-14.0
7023.940508860569,-28.0
7023.948201168261,2.0
7023.955893475953,-28.0
7023.963585783646,-14.0
7023.971278091338,-7.0
7023.97897039903,-33.0
7023.986662706722,-2.0
7023.994355014414,-24.0
7024.002047322107,-21.0
7024.009739629799,0.0
7024.017431937491,-38.0
7024.040742075655,-16.0
7024.048434383347,-26.0
7024.056126691039,-45.0
7024.063818998731,-14.0
7024.071511306423,-36.0
7024.079203614116,-12.0
7024.086895921808,2.0
7024.0945882295,-24.0
7024.102280537192,-2.0
7024.109972844884,-31.0
7024.117665152577,-31.0
7024.125357460269,-9.0
7024.133049767961,-38.0
7024.140742075653,-14.0
7024.148434383345,-19.0
7024.156126691038,-36.0
7024.16381899873,-7.0
7024.171511306422,-38.0
7024.179203614114,-21.0
7024.186895921806,-9.0
7024.194588229499,-45.0
7024.202280537191,-33.0
7024.209972844883,2.0
7024.217665152575,238.0
7024.225357460267,532.0
7024.2330497679595,484.0
7024.240742075652,197.0
7024.248434383344,-43.0
7024.256126691036,-60.0
7024.263818998728,-19.0
7024.2715113064205,-86.0
7024.279203614113,-67.0
7024.286895921805,-43.0
7024.294588229497,-79.0
7024.302280537189,-45.0
7024.3099728448815,-57.0
7024.317665152574,-60.0
7024.325357460266,-33.0
7024.333049767958,-60.0
7024.34074207565,-36.0
7024.3484343833425,-40.0
7024.356126691035,-50.0
7024.363818998727,-16.0
7024.371511306419,-45.0
7024.379203614111,-28.0
7024.386895921803,-12.0
7024.394588229496,-33.0
7024.402280537188,2.0
7024.40997284488,-9.0
7024.417665152572,-2.0
7024.425357460264,28.0
7024.433049767957,0.0
7024.440742075649,28.0
7024.448434383341,31.0
7024.456126691033,14.0
7024.463818998725,45.0
7024.471511306418,16.0
7024.47920361411,33.0
7024.486895921802,45.0
7024.494588229494,12.0
7024.502280537186,38.0
7024.509972844879,16.0
7024.517665152571,2.0
7024.525357460263,16.0
7024.533049767955,-26.0
7024.540742075647,-4.0
7024.54843438334,-9.0
7024.556126691032,-28.0
7024.563818998724,2.0
7024.571511306416,-31.0
7024.579203614108,-19.0
7024.5868959218005,0.0
7024.594588229493,-28.0
7024.643532242154,0.0
7024.651224549846,-14.0
7024.658916857538,-19.0
7024.6666091652305,7.0
7024.674301472923,-26.0
7024.681993780615,-2.0
7024.689686088307,-2.0
7024.697378395999,-21.0
7024.7050707036915,12.0
7024.712763011384,-19.0
7024.720455319076,-4.0
7024.728147626768,9.0
7024.73583993446,-28.0
7024.7435322421525,2.0
7024.751224549845,-9.0
7024.758916857537,-16.0
7024.766609165229,9.0
7024.774301472921,-26.0
7024.781993780613,-2.0
7024.789686088306,-2.0
7024.797378395998,-24.0
7024.80507070369,7.0
7024.812763011382,-24.0
7024.820455319074,-12.0
7024.828147626767,7.0
7024.835839934459,-26.0
7024.843532242151,4.0
7024.851224549843,-12.0
7024.858916857535,-14.0
7024.866609165228,16.0
7024.87430147292,-21.0
7024.881993780612,7.0
7024.889686088304,9.0
7024.897378395996,-19.0
7024.905070703689,19.0
7024.912763011381,-4.0
7024.920455319073,-2.0
7024.928147626765,7.0
7024.935839934457,-26.0
7024.94353224215,12.0
7024.951224549842,2.0
7024.958916857534,4.0
7024.966609165226,45.0
7024.974301472918,0.0
7024.9819937806105,9.0
7024.989686088303,7.0
7024.997378395995,-19.0
7025.005070703687,14.0
7025.012763011379,-12.0
7025.0204553190715,-2.0
7025.028147626764,14.0
7025.035839934456,-28.0
7025.043532242148,4.0
7025.05122454984,-12.0
7025.0589168575325,-24.0
7025.066609165225,9.0
7025.074301472917,-40.0
7025.081993780609,-33.0
7025.089686088301,79.0
7025.0973783959935,334.0
7025.105070703686,561.0
7025.112763011378,375.0
7025.12045531907,55.0
7025.128147626762,-48.0
7025.135839934454,-48.0
7025.143532242147,-40.0
7025.151224549839,-84.0
7025.158916857531,-77.0
7025.166609165223,-40.0
7025.174301472915,-84.0
7025.181993780608,-55.0
7025.1896860883,-48.0
7025.197378395992,-77.0
7025.172680075154,-36.0
7025.180372382846,-60.0
7025.188064690538,-57.0
7025.1957569982305,-33.0
7025.203449305923,-60.0
7025.211141613615,-26.0
7025.218833921307,-36.0
7025.226526228999,-43.0
7025.2342185366915,-9.0
7025.241910844384,-40.0
7025.249603152076,-14.0
7025.257295459768,-2.0
7025.26498776746,-28.0
7025.2726800751525,7.0
7025.280372382845,-7.0
7025.288064690537,-2.0
7025.295756998229,19.0
7025.303449305921,-12.0
7025.3111416136135,14.0
7025.318833921306,4.0
7025.326526228998,-4.0
7025.33421853669,19.0
7025.341910844382,-21.0
7025.349603152074,-9.0
7025.357295459767,-9.0
7025.364987767459,-52.0
7025.372680075151,-33.0
7025.380372382843,-57.0
7025.388064690535,-57.0
7025.395756998228,-38.0
7025.40344930592,-74.0
7025.411141613612,-55.0
7025.418833921304,-65.0
7025.426526228996,-77.0
7025.434218536689,-50.0
7025.441910844381,-79.0
7025.449603152073,-60.0
7025.457295459765,-60.0
7025.464987767457,-96.0
7025.47268007515,-65.0
7025.480372382842,-81.0
7025.488064690534,-89.0
7025.495756998226,-69.0
7025.503449305918,-96.0
7025.511141613611,-72.0
7025.518833921303,-79.0
7025.526526228995,-96.0
7025.534218536687,-72.0
7025.541910844379,-98.0
7025.5496031520715,-79.0
7025.557295459764,-79.0
7025.564987767456,-115.0
7025.572680075148,-86.0
7025.58037238284,-108.0
7025.5880646905325,-122.0
7025.595756998225,-105.0
7025.603449305917,-134.0
7025.611141613609,-113.0
7025.618833921301,-122.0
7025.6265262289935,-139.0
7025.634218536686,-110.0
7025.641910844378,-142.0
7025.64960315207,-134.0
7025.657295459762,-120.0
7025.6649877674545,-144.0
7025.672680075147,-122.0
7025.680372382839,-144.0
7025.688064690531,-149.0
7025.695756998223,-139.0
7025.7034493059155,-175.0
7025.711141613608,-151.0
7025.7188339213,-149.0
7025.726526228992,-151.0
7025.718754783154,-118.0
7025.726447090846,-144.0
7025.734139398538,-137.0
7025.74183170623,-134.0
7025.749524013922,-168.0
7025.757216321615,-139.0
7025.764908629307,-151.0
7025.772600936999,-149.0
7025.780293244691,-130.0
7025.787985552383,-163.0
7025.795677860076,-139.0
7025.803370167768,-142.0
7025.81106247546,-158.0
7025.818754783152,-127.0
7025.826447090844,-156.0
7025.8341393985365,-158.0
7025.841831706229,-139.0
7025.849524013921,-14.0
7025.857216321613,293.0
7025.864908629305,351.0
7025.8726009369975,62.0
7025.88029324469,-163.0
7025.887985552382,-178.0
7025.895677860074,-139.0
7025.903370167766,-195.0
7025.9110624754585,-207.0
7025.918754783151,-154.0
7025.926447090843,-190.0
7025.934139398535,-178.0
7025.941831706227,-146.0
7025.9495240139195,-180.0
7025.957216321612,-161.0
7025.964908629304,-173.0
7025.972600936996,-171.0
7025.980293244688,-144.0
7025.98798555238,-171.0
7025.995677860073,-149.0
7026.003370167765,-142.0
7026.011062475457,-146.0
7026.018754783149,-118.0
7026.026447090841,-151.0
7026.034139398534,-139.0
7026.041831706226,-118.0
7026.049524013918,-134.0
7026.05721632161,-96.0
7026.064908629302,-108.0
7026.072600936995,-108.0
7026.080293244687,-74.0
7026.087985552379,-103.0
7026.095677860071,-96.0
7026.103370167763,-98.0
7026.111062475456,-110.0
7026.118754783148,-81.0
7026.12644709084,-113.0
7026.134139398532,-113.0
7026.141831706224,-113.0
7026.149524013917,-149.0
7026.157216321609,-130.0
7026.164908629301,-156.0
7026.172600936993,-173.0
7026.180293244685,-154.0
7026.1879855523775,-183.0
7026.19567786007,-158.0
7026.203370167762,-154.0
7026.211062475454,-173.0
7026.218754783146,-137.0
7026.2264470908385,-161.0
7026.234139398531,-151.0
7026.241831706223,-122.0
7026.249524013915,-149.0
7026.257216321607,-130.0
7026.2649086292995,-139.0
7026.272600936992,-130.0
7026.342769283154,-101.0
7026.350461590846,-132.0
7026.358153898538,-101.0
7026.36584620623,-91.0
7026.3735385139225,-115.0
7026.381230821615,-86.0
7026.388923129307,-108.0
7026.396615436999,-105.0
7026.404307744691,-91.0
7026.4120000523835,-113.0
7026.419692360076,-79.0
7026.427384667768,-91.0
7026.43507697546,-98.0
7026.442769283152,-67.0
7026.4504615908445,-98.0
7026.458153898537,-79.0
7026.465846206229,-69.0
7026.473538513921,-89.0
7026.481230821613,-60.0
7026.4889231293055,-84.0
7026.496615436998,-77.0
7026.50430774469,-55.0
7026.512000052382,-84.0
7026.519692360074,-57.0
7026.5273846677665,-72.0
7026.535076975459,-79.0
7026.542769283151,-45.0
7026.550461590843,-67.0
7026.558153898535,-38.0
7026.565846206227,-28.0
7026.57353851392,-48.0
7026.581230821612,-24.0
7026.588923129304,-52.0
7026.596615436996,-48.0
7026.604307744688,-28.0
7026.612000052381,-57.0
7026.619692360073,-31.0
7026.627384667765,-40.0
7026.635076975457,-45.0
7026.642769283149,-14.0
7026.650461590842,-50.0
7026.658153898534,-36.0
7026.665846206226,-24.0
7026.673538513918,-50.0
7026.68123082161,-36.0
7026.688923129303,-7.0
7026.696615436995,228.0
7026.704307744687,508.0
7026.712000052379,411.0
7026.719692360071,98.0
7026.7273846677635,-74.0
7026.735076975456,-33.0
7026.742769283148,-12.0
7026.75046159084,-84.0
7026.758153898532,-48.0
7026.7658462062245,-28.0
7026.773538513917,-62.0
7026.781230821609,-26.0
7026.788923129301,-38.0
7026.796615436993,-33.0
7026.8043077446855,-9.0
7026.812000052378,-36.0
7026.81969236007,-4.0
7026.827384667762,-4.0
7026.835076975454,-12.0
7026.8427692831465,16.0
7026.850461590839,-2.0
7026.858153898531,28.0
7026.865846206223,45.0
7026.873538513915,26.0
7026.8812308216075,67.0
7026.8889231293,57.0
7026.896615436992,65.0
7026.856382408154,93.0
7026.864074715846,69.0
7026.871767023538,96.0
7026.8794593312305,93.0
7026.887151638923,81.0
7026.894843946615,110.0
7026.902536254307,84.0
7026.910228561999,96.0
7026.917920869691,103.0
7026.925613177384,77.0
7026.933305485076,103.0
7026.940997792768,77.0
7026.94869010046,69.0
7026.956382408152,86.0
7026.964074715845,48.0
7026.971767023537,67.0
7026.979459331229,60.0
7026.987151638921,48.0
7026.994843946613,74.0
7027.002536254306,45.0
7027.010228561998,62.0
7027.01792086969,74.0
7027.025613177382,48.0
7027.033305485074,79.0
7027.040997792767,62.0
7027.048690100459,62.0
7027.056382408151,89.0
7027.064074715843,60.0
7027.071767023535,86.0
7027.079459331228,84.0
7027.08715163892,69.0
7027.094843946612,98.0
7027.102536254304,72.0
7027.110228561996,84.0
7027.1179208696885,91.0
7027.125613177381,62.0
7027.133305485073,93.0
7027.140997792765,77.0
7027.148690100457,72.0
7027.1563824081495,96.0
7027.164074715842,67.0
7027.171767023534,89.0
7027.179459331226,86.0
7027.187151638918,74.0
7027.1948439466105,103.0
7027.202536254303,79.0
7027.210228561995,96.0
7027.217920869687,118.0
7027.225613177379,93.0
7027.2333054850715,122.0
7027.240997792764,110.0
7027.248690100456,113.0
7027.256382408148,144.0
7027.26407471584,118.0
7027.271767023532,142.0
7027.279459331225,137.0
7027.287151638917,115.0
7027.294843946609,144.0
7027.302536254301,122.0
7027.310228561993,144.0
7027.317920869686,166.0
7027.325613177378,137.0
7027.33330548507,156.0
7027.340997792762,134.0
7027.348690100454,125.0
7027.356382408147,146.0
7027.364074715839,115.0
7027.371767023531,139.0
7027.379459331223,146.0
7027.387151638915,139.0
7027.394843946608,178.0
7027.4025362543,156.0
7027.410228561992,168.0
7027.398092200154,187.0
7027.405784507846,151.0
7027.413476815538,158.0
7027.42116912323,195.0
7027.428861430923,416.0
7027.436553738615,708.0
7027.444246046307,657.0
7027.451938353999,354.0
7027.459630661691,105.0
7027.4673229693835,89.0
7027.475015277076,132.0
7027.482707584768,62.0
7027.49039989246,72.0
7027.498092200152,98.0
7027.5057845078445,57.0
7027.513476815537,84.0
7027.521169123229,74.0
7027.528861430921,67.0
7027.536553738613,91.0
7027.5442460463055,62.0
7027.551938353998,84.0
7027.55963066169,81.0
7027.567322969382,60.0
7027.575015277074,86.0
7027.5827075847665,65.0
7027.590399892459,77.0
7027.598092200151,93.0
7027.605784507843,69.0
7027.613476815535,101.0
7027.621169123227,91.0
7027.62886143092,89.0
7027.636553738612,115.0
7027.644246046304,89.0
7027.651938353996,113.0
7027.659630661688,113.0
7027.667322969381,91.0
7027.675015277073,118.0
7027.682707584765,93.0
7027.690399892457,98.0
7027.698092200149,110.0
7027.705784507842,74.0
7027.713476815534,96.0
7027.721169123226,77.0
7027.728861430918,60.0
7027.73655373861,77.0
7027.744246046303,38.0
7027.751938353995,50.0
7027.759630661687,50.0
7027.767322969379,26.0
7027.775015277071,52.0
7027.782707584764,26.0
7027.790399892456,33.0
7027.798092200148,48.0
7027.80578450784,16.0
7027.813476815532,43.0
7027.8211691232245,26.0
7027.828861430917,19.0
7027.836553738609,45.0
7027.844246046301,12.0
7027.851938353993,28.0
7027.8596306616855,33.0
7027.867322969378,12.0
7027.87501527707,38.0
7027.882707584762,12.0
7027.890399892454,16.0
7027.8980922001465,36.0
7027.905784507839,4.0
7027.913476815531,28.0
7027.921169123223,19.0
7027.928861430915,9.0
7027.9365537386075,31.0
7027.9442460463,0.0
7027.951938353992,19.0
7028.013632033154,24.0
7028.021324340846,-2.0
7028.029016648538,21.0
7028.0367089562305,-2.0
7028.044401263923,0.0
7028.052093571615,14.0
7028.059785879307,-14.0
7028.067478186999,12.0
7028.0751704946915,0.0
7028.082862802384,-12.0
7028.090555110076,14.0
7028.098247417768,-16.0
7028.10593972546,-4.0
7028.1136320331525,-2.0
7028.121324340845,-19.0
7028.129016648537,16.0
7028.136708956229,2.0
7028.144401263921,7.0
7028.1520935716135,19.0
7028.159785879306,-19.0
7028.167478186998,4.0
7028.17517049469,-7.0
7028.182862802382,-19.0
7028.1905551100745,9.0
7028.198247417767,-21.0
7028.205939725459,-9.0
7028.213632033151,-4.0
7028.221324340843,-28.0
7028.229016648535,0.0
7028.236708956228,-21.0
7028.24440126392,-19.0
7028.252093571612,-14.0
7028.259785879304,-31.0
7028.267478186996,158.0
7028.275170494689,440.0
7028.282862802381,537.0
7028.290555110073,325.0
7028.298247417765,-9.0
7028.305939725457,-55.0
7028.31363203315,-9.0
7028.321324340842,-72.0
7028.329016648534,-57.0
7028.336708956226,-52.0
7028.344401263918,-55.0
7028.352093571611,-40.0
7028.359785879303,-62.0
7028.367478186995,-36.0
7028.375170494687,-43.0
7028.382862802379,-52.0
7028.390555110072,-19.0
7028.398247417764,-45.0
7028.405939725456,-28.0
7028.413632033148,-16.0
7028.42132434084,-40.0
7028.4290166485325,-7.0
7028.436708956225,-24.0
7028.444401263917,-19.0
7028.452093571609,7.0
7028.459785879301,-16.0
7028.4674781869935,12.0
7028.475170494686,12.0
7028.482862802378,4.0
7028.49055511007,40.0
7028.498247417762,14.0
7028.5059397254545,31.0
7028.513632033147,43.0
7028.521324340839,19.0
7028.529016648531,45.0
7028.536708956223,26.0
7028.5444012639155,21.0
7028.552093571608,40.0
7028.5597858793,0.0
7028.567478186992,14.0
7028.537171386653,2.0
7028.544863694346,-21.0
7028.552556002038,0.0
7028.56024830973,-31.0
7028.567940617422,-19.0
7028.575632925114,-9.0
7028.583325232807,-36.0
7028.591017540499,-9.0
7028.598709848191,-28.0
7028.606402155883,-31.0
7028.614094463575,-9.0
7028.621786771268,-43.0
7028.62947907896,-19.0
7028.637171386652,-21.0
7028.644863694344,-40.0
7028.652556002036,-12.0
7028.660248309729,-36.0
7028.667940617421,-26.0
7028.675632925113,-14.0
7028.683325232805,-40.0
7028.691017540497,-12.0
7028.6987098481895,-26.0
7028.706402155882,-28.0
7028.714094463574,-7.0
7028.721786771266,-38.0
7028.729479078958,-16.0
7028.7371713866505,-19.0
7028.744863694343,-38.0
7028.752556002035,-9.0
7028.760248309727,-38.0
7028.767940617419,-28.0
7028.7756329251115,-16.0
7028.783325232804,-43.0
7028.791017540496,-16.0
7028.798709848188,-33.0
7028.80640215588,-36.0
7028.8140944635725,-12.0
7028.821786771265,-45.0
7028.829479078957,-26.0
7028.837171386649,-28.0
7028.844863694341,-50.0
7028.852556002033,-21.0
7028.860248309726,-50.0
7028.867940617418,-43.0
7028.87563292511,-24.0
7028.883325232802,-43.0
7028.891017540494,-7.0
7028.898709848187,-16.0
7028.906402155879,-26.0
7028.914094463571,-12.0
7028.921786771263,-48.0
7028.929479078955,-28.0
7028.937171386648,-26.0
7028.94486369434,-43.0
7028.952556002032,-16.0
7028.960248309724,-40.0
7028.967940617416,-33.0
7028.975632925109,-21.0
7028.983325232801,-50.0
7028.991017540493,-21.0
7028.998709848185,-36.0
7029.006402155877,-52.0
7029.01409446357,-36.0
7029.021786771262,38.0
7029.029479078954,330.0
7029.037171386646,529.0
7029.044863694338,366.0
7029.0525560020305,69.0
7029.060248309723,-84.0
7029.067940617415,-38.0
7029.075632925107,-43.0
7029.083325232799,-101.0
7029.0910175404915,-55.0
7029.106484678654,-67.0
7029.114176986346,-84.0
7029.121869294038,-50.0
7029.1295616017305,-72.0
7029.137253909423,-57.0
7029.144946217115,-52.0
7029.152638524807,-69.0
7029.160330832499,-40.0
7029.1680231401915,-65.0
7029.175715447884,-52.0
7029.183407755576,-33.0
7029.191100063268,-60.0
7029.19879237096,-28.0
7029.2064846786525,-36.0
7029.214176986345,-36.0
7029.221869294037,-4.0
7029.229561601729,-28.0
7029.237253909421,-7.0
7029.2449462171135,-2.0
7029.252638524806,-24.0
7029.260330832498,9.0
7029.26802314019,-4.0
7029.275715447882,4.0
7029.283407755574,16.0
7029.291100063267,-14.0
7029.298792370959,14.0
7029.306484678651,2.0
7029.314176986343,-14.0
7029.321869294035,2.0
7029.329561601728,-38.0
7029.33725390942,-31.0
7029.344946217112,-36.0
7029.352638524804,-62.0
7029.360330832496,-36.0
7029.368023140189,-62.0
7029.375715447881,-60.0
7029.383407755573,-43.0
7029.391100063265,-77.0
7029.398792370957,-50.0
7029.40648467865,-60.0
7029.414176986342,-69.0
7029.421869294034,-43.0
7029.429561601726,-77.0
7029.437253909418,-60.0
7029.444946217111,-50.0
7029.452638524803,-69.0
7029.460330832495,-43.0
7029.468023140187,-65.0
7029.475715447879,-57.0
7029.4834077555715,-38.0
7029.491100063264,-69.0
7029.498792370956,-45.0
7029.506484678648,-50.0
7029.51417698634,-62.0
7029.5218692940325,-38.0
7029.529561601725,-69.0
7029.537253909417,-50.0
7029.544946217109,-43.0
7029.552638524801,-69.0
7029.5603308324935,-45.0
7029.568023140186,-67.0
7029.575715447878,-62.0
7029.58340775557,-43.0
7029.591100063262,-77.0
7029.5987923709545,-55.0
7029.606484678647,-57.0
7029.614176986339,-69.0
7029.621869294031,-48.0
7029.629561601723,-77.0
7029.637253909415,-57.0
7029.644946217108,-55.0
7029.6526385248,-86.0
7029.660330832492,-57.0
7029.648279636653,-74.0
7029.655971944345,-69.0
7029.663664252037,-38.0
7029.671356559729,-55.0
7029.679048867421,-31.0
7029.686741175114,-52.0
7029.694433482806,-81.0
7029.702125790498,-55.0
7029.70981809819,-84.0
7029.717510405882,-77.0
7029.725202713575,-74.0
7029.732895021267,-96.0
7029.740587328959,-69.0
7029.748279636651,-93.0
7029.755971944343,-91.0
7029.763664252036,-72.0
7029.771356559728,-105.0
7029.77904886742,-89.0
7029.786741175112,-115.0
7029.794433482804,-93.0
7029.802125790497,146.0
7029.809818098189,373.0
7029.817510405881,334.0
7029.825202713573,21.0
7029.832895021265,-173.0
7029.840587328958,-105.0
7029.84827963665,-132.0
7029.855971944342,-185.0
7029.863664252034,-161.0
7029.871356559726,-185.0
7029.8790488674185,-173.0
7029.886741175111,-175.0
7029.894433482803,-183.0
7029.902125790495,-158.0
7029.909818098187,-187.0
7029.9175104058795,-163.0
7029.925202713572,-151.0
7029.932895021264,-178.0
7029.940587328956,-144.0
7029.948279636648,-161.0
7029.9559719443405,-161.0
7029.963664252033,-132.0
7029.971356559725,-163.0
7029.979048867417,-134.0
7029.986741175109,-132.0
7029.9944334828015,-144.0
7030.002125790494,-110.0
7030.009818098186,-132.0
7030.017510405878,-113.0
7030.02520271357,-93.0
7030.032895021262,-115.0
7030.040587328955,-86.0
7030.048279636647,-101.0
7030.055971944339,-103.0
7030.063664252031,-74.0
7030.071356559723,-105.0
7030.079048867416,-89.0
7030.086741175108,-93.0
7030.0944334828,-118.0
7030.102125790492,-105.0
7030.109818098184,-144.0
7030.117510405877,-132.0
7030.125202713569,-118.0
7030.132895021261,-151.0
7030.140587328953,-120.0
7030.148279636645,-130.0
7030.155971944338,-134.0
7030.16366425203,-108.0
7030.171356559722,-132.0
7030.179048867414,-105.0
7030.186741175106,-108.0
7030.194433482799,-122.0
7030.202125790491,-89.0
7030.183584553653,-110.0
7030.191276861346,-96.0
7030.198969169038,-81.0
7030.20666147673,-108.0
7030.214353784422,-72.0
7030.222046092114,-81.0
7030.229738399807,-86.0
7030.237430707499,-60.0
7030.245123015191,-84.0
7030.252815322883,-62.0
7030.260507630575,-62.0
7030.268199938268,-79.0
7030.27589224596,-43.0
7030.283584553652,-67.0
7030.291276861344,-60.0
7030.298969169036,-45.0
7030.306661476729,-69.0
7030.314353784421,-38.0
7030.322046092113,-48.0
7030.329738399805,-55.0
7030.337430707497,-26.0
7030.3451230151895,-55.0
7030.352815322882,-36.0
7030.360507630574,-31.0
7030.368199938266,-45.0
7030.375892245958,-14.0
7030.3835845536505,-40.0
7030.391276861343,-36.0
7030.398969169035,-19.0
7030.406661476727,-43.0
7030.414353784419,-12.0
7030.4220460921115,-9.0
7030.429738399804,-4.0
7030.437430707496,21.0
7030.445123015188,-16.0
7030.45281532288,-2.0
7030.4605076305725,0.0
7030.468199938265,-19.0
7030.475892245957,14.0
7030.483584553649,-7.0
7030.491276861341,0.0
7030.498969169033,19.0
7030.506661476726,-9.0
7030.514353784418,14.0
7030.52204609211,7.0
7030.529738399802,0.0
7030.537430707494,19.0
7030.545123015187,-26.0
7030.552815322879,45.0
7030.560507630571,286.0
7030.568199938263,527.0
7030.575892245955,510.0
7030.583584553648,161.0
7030.59127686134,-26.0
7030.598969169032,16.0
7030.606661476724,-12.0
7030.614353784416,-26.0
7030.622046092109,-21.0
7030.629738399801,-16.0
7030.637430707493,4.0
7030.645123015185,-14.0
7030.652815322877,19.0
7030.66050763057,24.0
7030.668199938262,7.0
7030.675892245954,45.0
7030.683584553646,31.0
7030.691276861338,43.0
7030.6989691690305,67.0
7030.706661476723,38.0
7030.714353784415,65.0
7030.722046092107,60.0
7030.729738399799,55.0
7030.7374307074915,84.0
7030.755821345654,57.0
7030.763513653346,79.0
7030.7712059610385,89.0
7030.778898268731,65.0
7030.786590576423,93.0
7030.794282884115,77.0
7030.801975191807,81.0
7030.8096674994995,98.0
7030.817359807192,67.0
7030.825052114884,89.0
7030.832744422576,77.0
7030.840436730268,62.0
7030.8481290379605,84.0
7030.855821345653,48.0
7030.863513653345,52.0
7030.871205961037,50.0
7030.878898268729,16.0
7030.886590576421,38.0
7030.894282884114,12.0
7030.901975191806,9.0
7030.909667499498,26.0
7030.91735980719,-4.0
7030.925052114882,16.0
7030.932744422575,9.0
7030.940436730267,-2.0
7030.948129037959,24.0
7030.955821345651,-4.0
7030.963513653343,7.0
7030.971205961036,14.0
7030.978898268728,-9.0
7030.98659057642,19.0
7030.994282884112,0.0
7031.001975191804,0.0
7031.009667499497,21.0
7031.017359807189,-9.0
7031.025052114881,12.0
7031.032744422573,7.0
7031.040436730265,-4.0
7031.048129037958,21.0
7031.05582134565,-9.0
7031.063513653342,4.0
7031.071205961034,14.0
7031.078898268726,-16.0
7031.0865905764185,7.0
7031.094282884111,-9.0
7031.101975191803,-9.0
7031.109667499495,7.0
7031.117359807187,-26.0
7031.1250521148795,0.0
7031.132744422572,-2.0
7031.140436730264,-21.0
7031.148129037956,4.0
7031.155821345648,-21.0
7031.1635136533405,-7.0
7031.171205961033,0.0
7031.178898268725,-26.0
7031.186590576417,4.0
7031.194282884109,-16.0
7031.2019751918015,-24.0
7031.209667499494,2.0
7031.217359807186,-28.0
7031.225052114878,-12.0
7031.23274442257,-14.0
7031.240436730262,-19.0
7031.248129037955,19.0
7031.255821345647,-4.0
7031.263513653339,4.0
7031.271205961031,4.0
7031.278898268723,-26.0
7031.286590576416,0.0
7031.294282884108,-16.0
7031.3019751918,-19.0
7031.309667499492,4.0
7031.352737220654,-28.0
7031.360429528346,-7.0
7031.368121836038,-12.0
7031.37581414373,-28.0
7031.383506451422,0.0
7031.391198759115,-31.0
7031.398891066807,-36.0
7031.406583374499,-33.0
7031.414275682191,31.0
7031.421967989883,322.0
7031.4296602975755,534.0
7031.437352605268,426.0
7031.44504491296,110.0
7031.452737220652,-84.0
7031.460429528344,-28.0
7031.4681218360365,-40.0
7031.475814143729,-96.0
7031.483506451421,-50.0
7031.491198759113,-65.0
7031.498891066805,-67.0
7031.5065833744975,-50.0
7031.51427568219,-69.0
7031.521967989882,-40.0
7031.529660297574,-55.0
7031.537352605266,-55.0
7031.5450449129585,-28.0
7031.552737220651,-57.0
7031.560429528343,-33.0
7031.568121836035,-28.0
7031.575814143727,-43.0
7031.583506451419,-12.0
7031.591198759112,-31.0
7031.598891066804,-19.0
7031.606583374496,-2.0
7031.614275682188,-24.0
7031.62196798988,9.0
7031.629660297573,-2.0
7031.637352605265,-2.0
7031.645044912957,26.0
7031.652737220649,-2.0
7031.660429528341,19.0
7031.668121836034,24.0
7031.675814143726,4.0
7031.683506451418,36.0
7031.69119875911,9.0
7031.698891066802,14.0
7031.706583374495,24.0
7031.714275682187,-12.0
7031.721967989879,2.0
7031.729660297571,-16.0
7031.737352605263,-28.0
7031.745044912956,-7.0
7031.752737220648,-38.0
7031.76042952834,-19.0
7031.768121836032,-16.0
7031.775814143724,-38.0
7031.7835064514165,-9.0
7031.791198759109,-31.0
7031.798891066801,-26.0
7031.806583374493,-9.0
7031.814275682185,-36.0
7031.8219679898775,-9.0
7031.82966029757,-21.0
7031.837352605262,-28.0
7031.845044912954,-2.0
7031.852737220646,-33.0
7031.8604295283385,-14.0
7031.868121836031,-9.0
7031.875814143723,-33.0
7031.883506451415,-4.0
7031.891198759107,-26.0
7031.8988910667995,-21.0
7031.906583374492,-4.0
7031.899502825154,-31.0
7031.907195132846,-4.0
7031.914887440538,-19.0
7031.92257974823,-28.0
7031.930272055923,-2.0
7031.937964363615,-33.0
7031.945656671307,-16.0
7031.953348978999,-9.0
7031.961041286691,-33.0
7031.968733594384,-4.0
7031.976425902076,-28.0
7031.984118209768,-24.0
7031.99181051746,-7.0
7031.999502825152,-40.0
7032.007195132845,-19.0
7032.014887440537,-24.0
7032.022579748229,-33.0
7032.030272055921,-9.0
7032.037964363613,-38.0
7032.045656671306,-19.0
7032.053348978998,-14.0
7032.06104128669,-40.0
7032.068733594382,-14.0
7032.076425902074,-38.0
7032.0841182097665,-33.0
7032.091810517459,-7.0
7032.099502825151,-26.0
7032.107195132843,4.0
7032.114887440535,-9.0
7032.1225797482275,-31.0
7032.13027205592,-12.0
7032.137964363612,-43.0
7032.145656671304,-24.0
7032.153348978996,-16.0
7032.1610412866885,-43.0
7032.168733594381,-14.0
7032.176425902073,-38.0
7032.184118209765,-36.0
7032.191810517457,-19.0
7032.1995028251495,-50.0
7032.207195132842,-21.0
7032.214887440534,-38.0
7032.222579748226,-62.0
7032.230272055918,62.0
7032.23796436361,305.0
7032.245656671303,537.0
7032.253348978995,421.0
7032.261041286687,67.0
7032.268733594379,-57.0
7032.276425902071,-48.0
7032.284118209764,-60.0
7032.291810517456,-69.0
7032.299502825148,-81.0
7032.30719513284,-52.0
7032.314887440532,-69.0
7032.322579748225,-77.0
7032.330272055917,-43.0
7032.337964363609,-74.0
7032.345656671301,-55.0
7032.353348978993,-40.0
7032.361041286686,-67.0
7032.368733594378,-36.0
7032.37642590207,-48.0
7032.384118209762,-43.0
7032.391810517454,-21.0
7032.399502825147,-48.0
7032.407195132839,-19.0
7032.414887440531,-19.0
7032.422579748223,-31.0
7032.430272055915,2.0
7032.4379643636075,-19.0
7032.4456566713,-2.0
7032.453348978992,12.0
7032.486408825153,-12.0
7032.494101132846,19.0
7032.501793440538,4.0
7032.50948574823,4.0
7032.517178055922,26.0
7032.524870363614,-2.0
7032.532562671307,16.0
7032.540254978999,7.0
7032.547947286691,-12.0
7032.555639594383,9.0
7032.563331902075,-31.0
7032.5710242097675,-24.0
7032.57871651746,-16.0
7032.586408825152,-48.0
7032.594101132844,-24.0
7032.601793440536,-38.0
7032.6094857482285,-40.0
7032.617178055921,-16.0
7032.624870363613,-50.0
7032.632562671305,-28.0
7032.640254978997,-28.0
7032.6479472866895,-45.0
7032.655639594382,-24.0
7032.663331902074,-52.0
7032.671024209766,-36.0
7032.678716517458,-21.0
7032.6864088251505,-50.0
7032.694101132843,-21.0
7032.701793440535,-36.0
7032.709485748227,-40.0
7032.717178055919,-16.0
7032.724870363611,-45.0
7032.732562671304,-21.0
7032.740254978996,-24.0
7032.747947286688,-43.0
7032.75563959438,-12.0
7032.763331902072,-38.0
7032.771024209765,-28.0
7032.778716517457,-16.0
7032.786408825149,-45.0
7032.794101132841,-19.0
7032.801793440533,-33.0
7032.809485748226,-40.0
7032.817178055918,-21.0
7032.82487036361,-52.0
7032.832562671302,-33.0
7032.840254978994,-36.0
7032.847947286687,-57.0
7032.855639594379,-31.0
7032.863331902071,-57.0
7032.871024209763,-50.0
7032.878716517455,-33.0
7032.886408825148,-60.0
7032.89410113284,-36.0
7032.901793440532,-52.0
7032.909485748224,-55.0
7032.917178055916,-26.0
7032.9248703636085,-57.0
7032.932562671301,-45.0
7032.940254978993,-45.0
7032.947947286685,-62.0
7032.955639594377,-26.0
7032.9633319020695,-40.0
7032.971024209762,-24.0
7032.978716517454,-9.0
7032.986408825146,-55.0
7032.994101132838,-40.0
7033.0017934405305,-50.0
7033.009485748223,-52.0
7033.017178055915,-33.0
7033.024870363607,-65.0
7033.032562671299,-43.0
7033.0402549789915,-38.0
7033.003804908154,-62.0
7033.011497215846,-33.0
7033.019189523538,-57.0
7033.026881831231,-52.0
7033.034574138923,-40.0
7033.042266446615,-84.0
7033.049958754307,-9.0
7033.057651061999,199.0
7033.065343369692,450.0
7033.073035677384,436.0
7033.080727985076,84.0
7033.088420292768,-89.0
7033.09611260046,-55.0
7033.103804908153,-77.0
7033.111497215845,-93.0
7033.119189523537,-105.0
7033.126881831229,-89.0
7033.134574138921,-79.0
7033.142266446614,-103.0
7033.149958754306,-77.0
7033.157651061998,-91.0
7033.16534336969,-91.0
7033.173035677382,-60.0
7033.180727985075,-98.0
7033.188420292767,-79.0
7033.196112600459,-62.0
7033.203804908151,-79.0
7033.211497215843,-50.0
7033.2191895235355,-69.0
7033.226881831228,-57.0
7033.23457413892,-33.0
7033.242266446612,-62.0
7033.249958754304,-38.0
7033.2576510619965,-40.0
7033.265343369689,-45.0
7033.273035677381,-16.0
7033.280727985073,-48.0
7033.288420292765,-28.0
7033.2961126004575,-21.0
7033.30380490815,-43.0
7033.311497215842,-12.0
7033.319189523534,-40.0
7033.326881831226,-45.0
7033.3345741389185,-26.0
7033.342266446611,-62.0
7033.349958754303,-50.0
7033.357651061995,-69.0
7033.365343369687,-91.0
7033.373035677379,-69.0
7033.380727985072,-103.0
7033.388420292764,-93.0
7033.396112600456,-89.0
7033.403804908148,-118.0
7033.41149721584,-93.0
7033.419189523533,-120.0
7033.426881831225,-118.0
7033.434574138917,-98.0
7033.442266446609,-130.0
7033.449958754301,-105.0
7033.457651061994,-120.0
7033.465343369686,-137.0
7033.473035677378,-103.0
7033.48072798507,-132.0
7033.488420292762,-120.0
7033.496112600455,-113.0
7033.503804908147,-137.0
7033.511497215839,-103.0
7033.519189523531,-125.0
7033.526881831223,-125.0
7033.534574138916,-101.0
7033.542266446608,-132.0
7033.5499587543,-110.0
7033.557651061992,-115.0
7033.572169908154,-127.0
7033.579862215846,-101.0
7033.5875545235385,-130.0
7033.595246831231,-110.0
7033.602939138923,-101.0
7033.610631446615,-127.0
7033.618323754307,-96.0
7033.6260160619995,-115.0
7033.633708369692,-118.0
7033.641400677384,-91.0
7033.649092985076,-122.0
7033.656785292768,-96.0
7033.6644776004605,-93.0
7033.672169908153,-108.0
7033.679862215845,-79.0
7033.687554523537,-103.0
7033.695246831229,-86.0
7033.7029391389215,-77.0
7033.710631446614,-101.0
7033.718323754306,-67.0
7033.726016061998,-84.0
7033.73370836969,-81.0
7033.741400677382,-55.0
7033.749092985075,-77.0
7033.756785292767,-45.0
7033.764477600459,-55.0
7033.772169908151,-79.0
7033.779862215843,-52.0
7033.787554523536,-79.0
7033.795246831228,-65.0
7033.80293913892,-52.0
7033.810631446612,-81.0
7033.818323754304,-52.0
7033.826016061997,-69.0
7033.833708369689,-69.0
7033.841400677381,-45.0
7033.849092985073,-77.0
7033.856785292765,-52.0
7033.864477600458,-65.0
7033.87216990815,-79.0
7033.879862215842,91.0
7033.887554523534,349.0
7033.895246831226,481.0
7033.902939138919,248.0
7033.910631446611,-67.0
7033.918323754303,-65.0
7033.926016061995,-40.0
7033.933708369687,-86.0
7033.9414006773795,-67.0
7033.949092985072,-74.0
7033.956785292764,-57.0
7033.964477600456,-62.0
7033.972169908148,-67.0
7033.9798622158405,-31.0
7033.987554523533,-52.0
7033.995246831225,-33.0
7034.002939138917,-19.0
7034.010631446609,-43.0
7034.0183237543015,-7.0
7034.026016061994,-12.0
7034.033708369686,-12.0
7034.041400677378,14.0
7034.04909298507,-7.0
7034.0567852927625,24.0
7034.064477600455,36.0
7034.072169908147,28.0
7034.079862215839,74.0
7034.087554523531,60.0
7034.095246831223,81.0
7034.102939138916,108.0
7034.110631446608,84.0
7034.1183237543,110.0
7034.126016061992,98.0
7034.113509241154,93.0
7034.121201548846,118.0
7034.1288938565385,81.0
7034.136586164231,98.0
7034.144278471923,93.0
7034.151970779615,65.0
7034.159663087307,81.0
7034.1673553949995,45.0
7034.175047702692,45.0
7034.182740010384,52.0
7034.190432318076,14.0
7034.198124625768,40.0
7034.2058169334605,28.0
7034.213509241153,24.0
7034.221201548845,45.0
7034.228893856537,14.0
7034.236586164229,33.0
7034.2442784719215,33.0
7034.251970779614,9.0
7034.259663087306,40.0
7034.267355394998,19.0
7034.27504770269,24.0
7034.282740010382,38.0
7034.290432318075,9.0
7034.298124625767,38.0
7034.305816933459,26.0
7034.313509241151,19.0
7034.321201548843,43.0
7034.328893856536,12.0
7034.336586164228,26.0
7034.34427847192,28.0
7034.351970779612,9.0
7034.359663087304,38.0
7034.367355394997,12.0
7034.375047702689,14.0
7034.382740010381,33.0
7034.390432318073,4.0
7034.398124625765,28.0
7034.405816933458,19.0
7034.41350924115,7.0
7034.421201548842,31.0
7034.428893856534,2.0
7034.436586164226,21.0
7034.444278471919,24.0
7034.451970779611,0.0
7034.459663087303,28.0
7034.467355394995,2.0
7034.475047702687,7.0
7034.4827400103795,26.0
7034.490432318072,-4.0
7034.498124625764,19.0
7034.505816933456,7.0
7034.513509241148,-7.0
7034.5212015488405,16.0
7034.528893856533,-16.0
7034.536586164225,0.0
7034.544278471917,2.0
7034.551970779609,-24.0
7034.5596630873015,12.0
7034.567355394994,2.0
7034.575047702686,14.0
7034.582740010378,31.0
7034.59043231807,-9.0
7034.5981246257625,12.0
7034.605816933455,0.0
7034.613509241147,-12.0
7034.621201548839,14.0
7034.628893856531,-16.0
7034.636586164223,-2.0
7034.644278471916,2.0
7034.651970779608,-24.0
7034.6596630873,7.0
7034.667355394992,-12.0
7034.713815242154,-12.0
7034.721507549846,2.0
7034.729199857538,-45.0
7034.7368921652305,26.0
7034.744584472923,243.0
7034.752276780615,510.0
7034.759969088307,544.0
7034.767661395999,202.0
7034.7753537036915,-31.0
7034.783046011384,-24.0
7034.790738319076,-33.0
7034.798430626768,-48.0
7034.80612293446,-62.0
7034.8138152421525,-43.0
7034.821507549845,-36.0
7034.829199857537,-67.0
7034.836892165229,-31.0
7034.844584472921,-36.0
7034.8522767806135,-50.0
7034.859969088306,-19.0
7034.867661395998,-45.0
7034.87535370369,-31.0
7034.883046011382,-16.0
7034.890738319074,-40.0
7034.898430626767,-7.0
7034.906122934459,-19.0
7034.913815242151,-16.0
7034.921507549843,7.0
7034.929199857535,-16.0
7034.936892165228,12.0
7034.94458447292,14.0
7034.952276780612,2.0
7034.959969088304,33.0
7034.967661395996,14.0
7034.975353703689,31.0
7034.983046011381,40.0
7034.990738319073,14.0
7034.998430626765,43.0
7035.006122934457,24.0
7035.01381524215,19.0
7035.021507549842,38.0
7035.029199857534,2.0
7035.036892165226,19.0
7035.044584472918,7.0
7035.052276780611,-19.0
7035.059969088303,2.0
7035.067661395995,-28.0
7035.075353703687,-21.0
7035.083046011379,-12.0
7035.0907383190715,-38.0
7035.098430626764,-12.0
7035.106122934456,-28.0
7035.113815242148,-31.0
7035.12150754984,-9.0
7035.1291998575325,-40.0
7035.136892165225,-19.0
7035.144584472917,-21.0
7035.152276780609,-36.0
7035.159969088301,-7.0
7035.1676613959935,-36.0
7035.175353703686,-26.0
7035.183046011378,-12.0
7035.19073831907,-45.0
7035.198430626762,-19.0
7035.2061229344545,-31.0
7035.213815242147,-33.0
7035.221507549839,-12.0
7035.229199857531,-43.0
7035.236892165223,-21.0
7035.244584472915,-19.0
7035.252276780608,-40.0
7035.2599690883,-14.0
7035.267661395992,-40.0
7035.283263992154,-31.0
7035.290956299847,-19.0
7035.298648607539,-48.0
7035.306340915231,-21.0
7035.314033222923,-38.0
7035.321725530615,-43.0
7035.329417838308,-19.0
7035.337110146,-50.0
7035.344802453692,-31.0
7035.352494761384,-31.0
7035.360187069076,-50.0
7035.3678793767685,-24.0
7035.375571684461,-50.0
7035.383263992153,-43.0
7035.390956299845,-28.0
7035.398648607537,-52.0
7035.4063409152295,-26.0
7035.414033222922,-45.0
7035.421725530614,-52.0
7035.429417838306,-21.0
7035.437110145998,-43.0
7035.4448024536905,-14.0
7035.452494761383,-7.0
7035.460187069075,-33.0
7035.467879376767,-14.0
7035.475571684459,-43.0
7035.4832639921515,-38.0
7035.490956299844,-19.0
7035.498648607536,-48.0
7035.506340915228,-24.0
7035.51403322292,-33.0
7035.5217255306125,-38.0
7035.529417838305,-14.0
7035.537110145997,-45.0
7035.544802453689,-26.0
7035.552494761381,-26.0
7035.560187069073,-62.0
7035.567879376766,-31.0
7035.575571684458,91.0
7035.58326399215,390.0
7035.590956299842,554.0
7035.598648607534,315.0
7035.606340915227,26.0
7035.614033222919,-69.0
7035.621725530611,-43.0
7035.629417838303,-48.0
7035.637110145995,-96.0
7035.644802453688,-55.0
7035.65249476138,-50.0
7035.660187069072,-81.0
7035.667879376764,-48.0
7035.675571684456,-69.0
7035.683263992149,-67.0
7035.690956299841,-43.0
7035.698648607533,-67.0
7035.706340915225,-43.0
7035.714033222917,-50.0
7035.72172553061,-55.0
7035.729417838302,-26.0
7035.737110145994,-52.0
7035.744802453686,-31.0
7035.752494761378,-21.0
7035.7601870690705,-38.0
7035.767879376763,-4.0
7035.775571684455,-19.0
7035.783263992147,-9.0
7035.790956299839,12.0
7035.7986486075315,-14.0
7035.806340915224,16.0
7035.814033222916,9.0
7035.821725530608,0.0
7035.8294178383,26.0
7035.8371101459925,-2.0
7035.823410283154,14.0
7035.831102590846,19.0
7035.838794898538,-9.0
7035.84648720623,9.0
7035.854179513923,-19.0
7035.861871821615,-24.0
7035.869564129307,-14.0
7035.877256436999,-52.0
7035.884948744691,-28.0
7035.892641052384,-36.0
7035.900333360076,-52.0
7035.908025667768,-31.0
7035.91571797546,-55.0
7035.923410283152,-38.0
7035.931102590845,-33.0
7035.938794898537,-57.0
7035.946487206229,-28.0
7035.954179513921,-50.0
7035.961871821613,-48.0
7035.969564129306,-28.0
7035.977256436998,-57.0
7035.98494874469,-31.0
7035.992641052382,-38.0
7036.000333360074,-50.0
7036.008025667767,-24.0
7036.015717975459,-55.0
7036.023410283151,-40.0
7036.031102590843,-24.0
7036.038794898535,-50.0
7036.0464872062275,-24.0
7036.05417951392,-45.0
7036.061871821612,-43.0
7036.069564129304,-21.0
7036.077256436996,-55.0
7036.0849487446885,-33.0
7036.092641052381,-36.0
7036.100333360073,-48.0
7036.108025667765,-24.0
7036.115717975457,-52.0
7036.1234102831495,-38.0
7036.131102590842,-31.0
7036.138794898534,-57.0
7036.146487206226,-28.0
7036.154179513918,-45.0
7036.1618718216105,-45.0
7036.169564129303,-26.0
7036.177256436995,-62.0
7036.184948744687,-38.0
7036.192641052379,-40.0
7036.200333360071,-57.0
7036.208025667764,-24.0
7036.215717975456,-48.0
7036.223410283148,-45.0
7036.23110259084,-40.0
7036.238794898532,-67.0
7036.246487206225,-33.0
7036.254179513917,-40.0
7036.261871821609,-36.0
7036.269564129301,-12.0
7036.277256436993,-45.0
7036.284948744686,-28.0
7036.292641052378,-38.0
7036.30033336007,-55.0
7036.308025667762,-26.0
7036.315717975454,-55.0
7036.323410283147,-43.0
7036.331102590839,-28.0
7036.338794898531,-55.0
7036.346487206223,-28.0
7036.354179513915,-48.0
7036.361871821608,-50.0
7036.3695641293,-26.0
7036.377256436992,-67.0
7036.385924116654,-60.0
7036.393616424346,33.0
7036.401308732038,284.0
7036.40900103973,515.0
7036.416693347423,342.0
7036.424385655115,33.0
7036.432077962807,-67.0
7036.439770270499,-62.0
7036.447462578191,-60.0
7036.4551548858835,-101.0
7036.462847193576,-89.0
7036.470539501268,-62.0
7036.47823180896,-101.0
7036.485924116652,-72.0
7036.4936164243445,-67.0
7036.501308732037,-86.0
7036.509001039729,-55.0
7036.516693347421,-86.0
7036.524385655113,-72.0
7036.5320779628055,-48.0
7036.539770270498,-77.0
7036.54746257819,-45.0
7036.555154885882,-55.0
7036.562847193574,-57.0
7036.5705395012665,-31.0
7036.578231808959,-60.0
7036.585924116651,-38.0
7036.593616424343,-28.0
7036.601308732035,-45.0
7036.609001039727,-14.0
7036.61669334742,-36.0
7036.624385655112,-21.0
7036.632077962804,-2.0
7036.639770270496,-31.0
7036.647462578188,-9.0
7036.655154885881,-26.0
7036.662847193573,-38.0
7036.670539501265,-16.0
7036.678231808957,-57.0
7036.685924116649,-52.0
7036.693616424342,-57.0
7036.701308732034,-89.0
7036.709001039726,-69.0
7036.716693347418,-105.0
7036.72438565511,-101.0
7036.732077962803,-86.0
7036.739770270495,-122.0
7036.747462578187,-101.0
7036.755154885879,-108.0
7036.762847193571,-113.0
7036.770539501264,-89.0
7036.778231808956,-125.0
7036.785924116648,-108.0
7036.79361642434,-105.0
7036.801308732032,-134.0
7036.8090010397245,-108.0
7036.816693347417,-130.0
7036.824385655109,-122.0
7036.832077962801,-108.0
7036.839770270493,-139.0
7036.8474625781855,-113.0
7036.855154885878,-127.0
7036.86284719357,-142.0
7036.870539501262,-113.0
7036.878231808954,-139.0
7036.8859241166465,-120.0
7036.893616424339,-115.0
7036.901308732031,-142.0
7036.909001039723,-113.0
7036.916693347415,-132.0
7036.9243856551075,-127.0
7036.9320779628,-110.0
7036.939770270492,-144.0
7036.935579616654,-115.0
7036.943271924346,-122.0
7036.950964232038,-134.0
7036.95865653973,-108.0
7036.9663488474225,-134.0
7036.974041155115,-118.0
7036.981733462807,-105.0
7036.989425770499,-127.0
7036.997118078191,-101.0
7037.0048103858835,-125.0
7037.012502693576,-118.0
7037.020195001268,-98.0
7037.02788730896,-134.0
7037.035579616652,-103.0
7037.0432719243445,-101.0
7037.050964232037,-113.0
7037.058656539729,-84.0
7037.066348847421,-98.0
7037.074041155113,-72.0
7037.0817334628055,-74.0
7037.089425770498,-110.0
7037.09711807819,-79.0
7037.104810385882,-93.0
7037.112502693574,-91.0
7037.120195001266,-69.0
7037.127887308959,-96.0
7037.135579616651,-69.0
7037.143271924343,-72.0
7037.150964232035,-81.0
7037.158656539727,-52.0
7037.16634884742,-84.0
7037.174041155112,-69.0
7037.181733462804,-69.0
7037.189425770496,-74.0
7037.197118078188,139.0
7037.204810385881,399.0
7037.212502693573,419.0
7037.220195001265,137.0
7037.227887308957,-110.0
7037.235579616649,-60.0
7037.243271924342,-55.0
7037.250964232034,-115.0
7037.258656539726,-74.0
7037.266348847418,-86.0
7037.27404115511,-86.0
7037.281733462803,-69.0
7037.289425770495,-84.0
7037.297118078187,-57.0
7037.304810385879,-69.0
7037.312502693571,-65.0
7037.3201950012635,-40.0
7037.327887308956,-69.0
7037.335579616648,-38.0
7037.34327192434,-33.0
7037.350964232032,-40.0
7037.3586565397245,-4.0
7037.366348847417,-24.0
7037.374041155109,-4.0
7037.381733462801,14.0
7037.389425770493,-4.0
7037.3971180781855,28.0
7037.404810385878,21.0
7037.41250269357,28.0
7037.420195001262,55.0
7037.427887308954,26.0
7037.4355796166465,57.0
7037.443271924339,65.0
7037.450964232031,52.0
7037.458656539723,91.0
7037.466348847415,69.0
7037.474041155107,79.0
7037.4817334628,84.0
7037.489425770492,48.0
7037.503780616654,62.0
7037.511472924346,40.0
7037.519165232038,31.0
7037.52685753973,50.0
7037.534549847423,21.0
7037.542242155115,40.0
7037.549934462807,38.0
7037.557626770499,19.0
7037.565319078191,52.0
7037.573011385884,24.0
7037.580703693576,31.0
7037.588396001268,48.0
7037.59608830896,19.0
7037.603780616652,45.0
7037.6114729243445,33.0
7037.619165232037,31.0
7037.626857539729,52.0
7037.634549847421,24.0
7037.642242155113,45.0
7037.6499344628055,48.0
7037.657626770498,28.0
7037.66531907819,52.0
7037.673011385882,26.0
7037.680703693574,36.0
7037.6883960012665,50.0
7037.696088308959,19.0
7037.703780616651,43.0
7037.711472924343,31.0
7037.719165232035,21.0
7037.7268575397275,43.0
7037.73454984742,9.0
7037.742242155112,28.0
7037.749934462804,31.0
7037.757626770496,9.0
7037.765319078188,38.0
7037.773011385881,14.0
7037.780703693573,19.0
7037.788396001265,31.0
7037.796088308957,2.0
7037.803780616649,28.0
7037.811472924342,16.0
7037.819165232034,7.0
7037.826857539726,33.0
7037.834549847418,-2.0
7037.84224215511,16.0
7037.849934462803,21.0
7037.857626770495,-4.0
7037.865319078187,24.0
7037.873011385879,0.0
7037.880703693571,2.0
7037.888396001264,21.0
7037.896088308956,2.0
7037.903780616648,38.0
7037.91147292434,28.0
7037.919165232032,12.0
7037.926857539725,33.0
7037.934549847417,-4.0
7037.942242155109,9.0
7037.949934462801,16.0
7037.957626770493,-2.0
7037.9653190781855,24.0
7037.973011385878,0.0
7037.98070369357,4.0
7037.988396001262,21.0
7037.996088308954,-12.0
7038.0037806166465,14.0
7038.011472924339,7.0
7038.019165232031,-21.0
7038.026857539723,9.0
7038.034549847415,139.0
7038.0422421551075,452.0
7038.0499344628,594.0
7038.057626770492,342.0
7038.106839366654,50.0
7038.114531674346,-50.0
7038.122223982038,-12.0
7038.12991628973,-28.0
7038.1376085974225,-79.0
7038.145300905115,-31.0
7038.152993212807,-38.0
7038.160685520499,-60.0
7038.168377828191,-21.0
7038.1760701358835,-45.0
7038.183762443576,-31.0
7038.191454751268,-19.0
7038.19914705896,-40.0
7038.206839366652,-9.0
7038.2145316743445,-28.0
7038.222223982037,-21.0
7038.229916289729,0.0
7038.237608597421,-26.0
7038.245300905113,0.0
7038.252993212805,0.0
7038.260685520498,-7.0
7038.26837782819,26.0
7038.276070135882,2.0
7038.283762443574,21.0
7038.291454751266,38.0
7038.299147058959,16.0
7038.306839366651,48.0
7038.314531674343,31.0
7038.322223982035,36.0
7038.329916289727,57.0
7038.33760859742,24.0
7038.345300905112,48.0
7038.352993212804,43.0
7038.360685520496,21.0
7038.368377828188,43.0
7038.376070135881,9.0
7038.383762443573,16.0
7038.391454751265,19.0
7038.399147058957,-14.0
7038.406839366649,12.0
7038.414531674342,-7.0
7038.422223982034,-9.0
7038.429916289726,12.0
7038.437608597418,-21.0
7038.44530090511,2.0
7038.4529932128025,2.0
7038.460685520495,-14.0
7038.468377828187,14.0
7038.476070135879,-12.0
7038.483762443571,-2.0
7038.4914547512635,9.0
7038.499147058956,-14.0
7038.506839366648,14.0
7038.51453167434,-2.0
7038.522223982032,-7.0
7038.5299162897245,16.0
7038.537608597417,-16.0
7038.545300905109,2.0
7038.552993212801,-2.0
7038.560685520493,-19.0
7038.5683778281855,12.0
7038.576070135878,-14.0
7038.58376244357,-7.0
7038.591454751262,7.0
7038.599147058954,-24.0
7038.606839366646,4.0
7038.614531674339,-7.0
7038.622223982031,-14.0
7038.629916289723,4.0
7038.637608597415,-26.0
7038.645300905107,-7.0
7038.6529932128,-7.0
7038.660685520492,-24.0
7038.641669699653,4.0
7038.649362007345,-21.0
7038.657054315037,-12.0
7038.66474662273,2.0
7038.672438930422,-26.0
7038.680131238114,0.0
7038.687823545806,-16.0
7038.695515853498,-26.0
7038.703208161191,-2.0
7038.710900468883,-36.0
7038.718592776575,-21.0
7038.726285084267,-21.0
7038.733977391959,-40.0
7038.7416696996515,-4.0
7038.749362007344,-19.0
7038.757054315036,-7.0
7038.764746622728,2.0
7038.77243893042,-38.0
7038.7801312381125,-14.0
7038.787823545805,-26.0
7038.795515853497,-36.0
7038.803208161189,-9.0
7038.810900468881,-40.0
7038.8185927765735,-24.0
7038.826285084266,-19.0
7038.833977391958,-38.0
7038.84166969965,-9.0
7038.849362007342,-36.0
7038.8570543150345,-31.0
7038.864746622727,-24.0
7038.872438930419,-65.0
7038.880131238111,50.0
7038.887823545803,303.0
7038.895515853495,527.0
7038.903208161188,448.0
7038.91090046888,81.0
7038.918592776572,-60.0
7038.926285084264,-24.0
7038.933977391956,-57.0
7038.941669699649,-65.0
7038.949362007341,-69.0
7038.957054315033,-55.0
7038.964746622725,-45.0
7038.972438930417,-72.0
7038.98013123811,-40.0
7038.987823545802,-50.0
7038.995515853494,-55.0
7039.003208161186,-26.0
7039.010900468878,-57.0
7039.018592776571,-36.0
7039.026285084263,-26.0
7039.033977391955,-48.0
7039.041669699647,-12.0
7039.049362007339,-28.0
7039.057054315032,-21.0
7039.064746622724,-2.0
7039.072438930416,-24.0
7039.080131238108,14.0
7039.0878235458,12.0
7039.0955158534925,2.0
7039.103208161185,36.0
7039.110900468877,9.0
7039.118592776569,28.0
7039.126285084261,38.0
7039.1339773919535,14.0
7039.141669699646,48.0
7039.149362007338,28.0
7039.15705431503,28.0
7039.164746622722,43.0
7039.1724389304145,4.0
7039.180131238107,19.0
7039.187823545799,4.0
7039.195515853491,-12.0
7039.1863472416535,7.0
7039.194039549346,-31.0
7039.201731857038,-16.0
7039.20942416473,-9.0
7039.217116472422,-40.0
7039.2248087801145,-16.0
7039.232501087807,-36.0
7039.240193395499,-33.0
7039.247885703191,-12.0
7039.255578010883,-45.0
7039.263270318575,-24.0
7039.270962626268,-26.0
7039.27865493396,-38.0
7039.286347241652,-9.0
7039.294039549344,-36.0
7039.301731857036,-21.0
7039.309424164729,-9.0
7039.317116472421,-36.0
7039.324808780113,-7.0
7039.332501087805,-28.0
7039.340193395497,-28.0
7039.34788570319,-7.0
7039.355578010882,-38.0
7039.363270318574,-14.0
7039.370962626266,-16.0
7039.378654933958,-36.0
7039.386347241651,-7.0
7039.394039549343,-33.0
7039.401731857035,-24.0
7039.409424164727,-16.0
7039.417116472419,-43.0
7039.424808780112,-14.0
7039.432501087804,-36.0
7039.440193395496,-36.0
7039.447885703188,-9.0
7039.45557801088,-45.0
7039.4632703185725,-28.0
7039.470962626265,-31.0
7039.478654933957,-43.0
7039.486347241649,-16.0
7039.494039549341,-52.0
7039.5017318570335,-40.0
7039.509424164726,-28.0
7039.517116472418,-57.0
7039.52480878011,-31.0
7039.532501087802,-48.0
7039.5401933954945,-55.0
7039.547885703187,-33.0
7039.555578010879,-57.0
7039.563270318571,-24.0
7039.570962626263,-19.0
7039.5786549339555,-40.0
7039.586347241648,-19.0
7039.59403954934,-50.0
7039.601731857032,-40.0
7039.609424164724,-26.0
7039.6171164724165,-52.0
7039.624808780109,-28.0
7039.632501087801,-43.0
7039.640193395493,-45.0
7039.647885703185,-26.0
7039.655578010877,-57.0
7039.66327031857,-31.0
7039.670962626262,-31.0
7039.678654933954,-60.0
7039.686347241646,-43.0
7039.694039549338,-12.0
7039.701731857031,224.0
7039.709424164723,481.0
7039.717116472415,404.0
7039.724808780107,120.0
7039.732501087799,-79.0
7039.740193395492,-62.0
7039.759796366654,-43.0
7039.767488674346,-118.0
7039.775180982038,-81.0
7039.782873289731,-67.0
7039.790565597423,-98.0
7039.798257905115,-65.0
7039.805950212807,-84.0
7039.813642520499,-79.0
7039.8213348281915,-57.0
7039.829027135884,-81.0
7039.836719443576,-55.0
7039.844411751268,-67.0
7039.85210405896,-67.0
7039.8597963666525,-33.0
7039.867488674345,-65.0
7039.875180982037,-43.0
7039.882873289729,-33.0
7039.890565597421,-50.0
7039.8982579051135,-16.0
7039.905950212806,-36.0
7039.913642520498,-24.0
7039.92133482819,-4.0
7039.929027135882,-33.0
7039.9367194435745,0.0
7039.944411751267,-7.0
7039.952104058959,-16.0
7039.959796366651,7.0
7039.967488674343,-24.0
7039.975180982035,-4.0
7039.982873289728,2.0
7039.99056559742,-28.0
7039.998257905112,-12.0
7040.005950212804,-43.0
7040.013642520496,-45.0
7040.021334828189,-40.0
7040.029027135881,-84.0
7040.036719443573,-60.0
7040.044411751265,-69.0
7040.052104058957,-81.0
7040.05979636665,-55.0
7040.067488674342,-86.0
7040.075180982034,-67.0
7040.082873289726,-65.0
7040.090565597418,-86.0
7040.098257905111,-52.0
7040.105950212803,-69.0
7040.113642520495,-69.0
7040.121334828187,-55.0
7040.129027135879,-86.0
7040.136719443572,-57.0
7040.144411751264,-69.0
7040.152104058956,-81.0
7040.159796366648,-52.0
7040.16748867434,-86.0
7040.1751809820325,-72.0
7040.182873289725,-65.0
7040.190565597417,-93.0
7040.198257905109,-65.0
7040.205950212801,-86.0
7040.2136425204935,-86.0
7040.221334828186,-69.0
7040.229027135878,-101.0
7040.23671944357,-77.0
7040.244411751262,-89.0
7040.2521040589545,-105.0
7040.259796366647,-79.0
7040.267488674339,-108.0
7040.275180982031,-91.0
7040.282873289723,-86.0
7040.2905655974155,-118.0
7040.298257905108,-91.0
7040.3059502128,-113.0
7040.313642520492,-113.0
7040.292712762153,-96.0
7040.3004050698455,-122.0
7040.308097377538,-91.0
7040.31578968523,-103.0
7040.323481992922,-130.0
7040.331174300614,-101.0
7040.3388666083065,-130.0
7040.346558915999,-125.0
7040.354251223691,-115.0
7040.361943531383,-130.0
7040.369635839075,-86.0
7040.3773281467675,-110.0
7040.38502045446,-122.0
7040.392712762152,-103.0
7040.400405069844,-142.0
7040.408097377536,-122.0
7040.415789685228,-122.0
7040.423481992921,-134.0
7040.431174300613,-105.0
7040.438866608305,-142.0
7040.446558915997,-125.0
7040.454251223689,-108.0
7040.461943531382,-137.0
7040.469635839074,-105.0
7040.477328146766,-120.0
7040.485020454458,-130.0
7040.49271276215,-101.0
7040.500405069843,7.0
7040.508097377535,317.0
7040.515789685227,414.0
7040.523481992919,127.0
7040.531174300611,-103.0
7040.538866608304,-125.0
7040.546558915996,-81.0
7040.554251223688,-120.0
7040.56194353138,-149.0
7040.569635839072,-91.0
7040.577328146765,-115.0
7040.585020454457,-120.0
7040.592712762149,-79.0
7040.600405069841,-108.0
7040.608097377533,-84.0
7040.6157896852255,-77.0
7040.623481992918,-89.0
7040.63117430061,-57.0
7040.638866608302,-77.0
7040.646558915994,-62.0
7040.6542512236865,-45.0
7040.661943531379,-69.0
7040.669635839071,-31.0
7040.677328146763,-40.0
7040.685020454455,-40.0
7040.6927127621475,-7.0
7040.70040506984,-33.0
7040.708097377532,-7.0
7040.715789685224,2.0
7040.723481992916,-9.0
7040.7311743006085,24.0
7040.738866608301,2.0
7040.746558915993,14.0
7040.754251223685,33.0
7040.761943531377,7.0
7040.769635839069,36.0
7040.777328146762,19.0
7040.785020454454,4.0
7040.792712762146,24.0
7040.800405069838,-16.0
7040.80809737753,-4.0
7040.815789685223,-7.0
7040.823481992915,-26.0
7040.831174300607,9.0
7040.838866608299,-7.0
7040.846558915991,14.0
7040.832806512153,40.0
7040.840498819845,12.0
7040.848191127538,43.0
7040.85588343523,33.0
7040.863575742922,28.0
7040.871268050614,52.0
7040.878960358306,19.0
7040.886652665999,40.0
7040.894344973691,43.0
7040.902037281383,19.0
7040.909729589075,50.0
7040.917421896767,24.0
7040.9251142044595,28.0
7040.932806512152,45.0
7040.940498819844,12.0
7040.948191127536,38.0
7040.955883435228,28.0
7040.9635757429205,24.0
7040.971268050613,50.0
7040.978960358305,16.0
7040.986652665997,36.0
7040.994344973689,38.0
7041.0020372813815,14.0
7041.009729589074,43.0
7041.017421896766,19.0
7041.025114204458,21.0
7041.03280651215,38.0
7041.0404988198425,7.0
7041.048191127535,33.0
7041.055883435227,24.0
7041.063575742919,14.0
7041.071268050611,40.0
7041.078960358303,9.0
7041.086652665996,26.0
7041.094344973688,31.0
7041.10203728138,4.0
7041.109729589072,28.0
7041.117421896764,4.0
7041.125114204457,12.0
7041.132806512149,28.0
7041.140498819841,-7.0
7041.148191127533,21.0
7041.155883435225,9.0
7041.163575742918,-4.0
7041.17126805061,26.0
7041.178960358302,2.0
7041.186652665994,24.0
7041.194344973686,36.0
7041.202037281379,4.0
7041.209729589071,24.0
7041.217421896763,-2.0
7041.225114204455,0.0
7041.232806512147,21.0
7041.24049881984,-7.0
7041.248191127532,16.0
7041.255883435224,7.0
7041.263575742916,-4.0
7041.271268050608,24.0
7041.2789603583005,-4.0
7041.286652665993,7.0
7041.294344973685,14.0
7041.302037281377,-24.0
7041.309729589069,2.0
7041.3174218967615,110.0
7041.325114204454,397.0
7041.332806512146,597.0
7041.340498819838,385.0
7041.34819112753,72.0
7041.3558834352225,-45.0
7041.363575742915,-19.0
7041.371268050607,-16.0
7041.378960358299,-72.0
7041.386652665991,-36.0
7041.435568804154,-24.0
7041.443261111846,-62.0
7041.450953419539,-26.0
7041.458645727231,-40.0
7041.466338034923,-43.0
7041.474030342615,-16.0
7041.481722650307,-48.0
7041.4894149579995,-21.0
7041.497107265692,-21.0
7041.504799573384,-36.0
7041.512491881076,-4.0
7041.520184188768,-28.0
7041.5278764964605,-9.0
7041.535568804153,4.0
7041.543261111845,-19.0
7041.550953419537,16.0
7041.558645727229,7.0
7041.5663380349215,9.0
7041.574030342614,36.0
7041.581722650306,9.0
7041.589414957998,36.0
7041.59710726569,38.0
7041.6047995733825,19.0
7041.612491881075,48.0
7041.620184188767,21.0
7041.627876496459,33.0
7041.635568804151,40.0
7041.6432611118435,7.0
7041.650953419536,28.0
7041.658645727228,4.0
7041.66633803492,-9.0
7041.674030342612,7.0
7041.681722650304,-31.0
7041.689414957997,-14.0
7041.697107265689,-16.0
7041.704799573381,-36.0
7041.712491881073,-7.0
7041.720184188765,-36.0
7041.727876496458,-26.0
7041.73556880415,-14.0
7041.743261111842,-43.0
7041.750953419534,-12.0
7041.758645727226,-26.0
7041.766338034919,-33.0
7041.774030342611,-7.0
7041.781722650303,-36.0
7041.789414957995,-12.0
7041.797107265687,-9.0
7041.80479957338,-28.0
7041.812491881072,0.0
7041.820184188764,-28.0
7041.827876496456,-21.0
7041.835568804148,-4.0
7041.843261111841,-31.0
7041.850953419533,-2.0
7041.858645727225,-14.0
7041.866338034917,-21.0
7041.874030342609,4.0
7041.8817226503015,-28.0
7041.889414957994,-12.0
7041.897107265686,-9.0
7041.904799573378,-28.0
7041.91249188107,0.0
7041.9201841887625,-26.0
7041.927876496455,-19.0
7041.935568804147,-7.0
7041.943261111839,-36.0
7041.950953419531,-4.0
7041.9586457272235,-16.0
7041.966338034916,-26.0
7041.974030342608,0.0
7041.9817226503,-31.0
7041.989414957992,-16.0
7042.037754762154,-12.0
7042.045447069846,-33.0
7042.053139377538,-4.0
7042.06083168523,-28.0
7042.068523992923,-24.0
7042.076216300615,-12.0
7042.083908608307,-38.0
7042.091600915999,-4.0
7042.099293223691,-7.0
7042.1069855313835,-9.0
7042.114677839076,14.0
7042.122370146768,-26.0
7042.13006245446,-14.0
7042.137754762152,-9.0
7042.1454470698445,-33.0
7042.153139377537,-4.0
7042.160831685229,-26.0
7042.168523992921,-21.0
7042.176216300613,-4.0
7042.1839086083055,-36.0
7042.191600915998,-12.0
7042.19929322369,-19.0
7042.206985531382,-26.0
7042.214677839074,-7.0
7042.2223701467665,-52.0
7042.230062454459,24.0
7042.237754762151,267.0
7042.245447069843,503.0
7042.253139377535,496.0
7042.2608316852275,158.0
7042.26852399292,-52.0
7042.276216300612,-24.0
7042.283908608304,-50.0
7042.291600915996,-67.0
7042.299293223688,-65.0
7042.306985531381,-62.0
7042.314677839073,-45.0
7042.322370146765,-72.0
7042.330062454457,-48.0
7042.337754762149,-40.0
7042.345447069842,-65.0
7042.353139377534,-28.0
7042.360831685226,-48.0
7042.368523992918,-48.0
7042.37621630061,-21.0
7042.383908608303,-45.0
7042.391600915995,-19.0
7042.399293223687,-24.0
7042.406985531379,-36.0
7042.414677839071,-2.0
7042.422370146764,-24.0
7042.430062454456,-4.0
7042.437754762148,12.0
7042.44544706984,-7.0
7042.453139377532,26.0
7042.460831685225,12.0
7042.468523992917,16.0
7042.476216300609,40.0
7042.483908608301,9.0
7042.491600915993,36.0
7042.4992932236855,33.0
7042.506985531378,19.0
7042.51467783907,40.0
7042.522370146762,4.0
7042.530062454454,12.0
7042.5377547621465,14.0
7042.545447069839,-24.0
7042.553139377531,0.0
7042.560831685223,-21.0
7042.568523992915,-26.0
7042.5762163006075,-7.0
7042.5839086083,-36.0
7042.591600915992,-14.0
7042.574849658155,-16.0
7042.582541965847,-33.0
7042.590234273539,-2.0
7042.597926581231,-31.0
7042.605618888923,-19.0
7042.6133111966155,-4.0
7042.621003504308,-33.0
7042.628695812,-2.0
7042.636388119692,-16.0
7042.644080427384,-19.0
7042.6517727350765,4.0
7042.659465042769,-26.0
7042.667157350461,-7.0
7042.674849658153,-14.0
7042.682541965845,-28.0
7042.6902342735375,2.0
7042.69792658123,-28.0
7042.705618888922,-19.0
7042.713311196614,-4.0
7042.721003504306,-33.0
7042.7286958119985,-7.0
7042.736388119691,-21.0
7042.744080427383,-24.0
7042.751772735075,0.0
7042.759465042767,-33.0
7042.7671573504595,-12.0
7042.774849658152,-14.0
7042.782541965844,-38.0
7042.790234273536,-9.0
7042.797926581228,-36.0
7042.80561888892,-28.0
7042.813311196613,-12.0
7042.821003504305,-43.0
7042.828695811997,-16.0
7042.836388119689,-31.0
7042.844080427381,-38.0
7042.851772735074,-14.0
7042.859465042766,-48.0
7042.867157350458,-26.0
7042.87484965815,-26.0
7042.882541965842,-50.0
7042.890234273535,-16.0
7042.897926581227,-31.0
7042.905618888919,-14.0
7042.913311196611,4.0
7042.921003504303,-28.0
7042.928695811996,-9.0
7042.936388119688,-28.0
7042.94408042738,-38.0
7042.951772735072,-12.0
7042.959465042764,-43.0
7042.967157350457,-26.0
7042.974849658149,-21.0
7042.982541965841,-43.0
7042.990234273533,-12.0
7042.997926581225,-38.0
7043.0056188889175,-33.0
7043.01331119661,-16.0
7043.021003504302,-60.0
7043.028695811994,-38.0
7043.036388119686,77.0
7043.0440804273785,349.0
7043.051772735071,546.0
7043.059465042763,332.0
7043.067157350455,31.0
7043.074849658147,-62.0
7043.0825419658395,-48.0
7043.090234273532,-48.0
7043.097926581224,-96.0
7043.105618888916,-69.0
7043.113311196608,-52.0
7043.1210035043005,-93.0
7043.128695811993,-57.0
7043.118063867154,-57.0
7043.125756174846,-72.0
7043.133448482538,-43.0
7043.141140790231,-69.0
7043.148833097923,-52.0
7043.156525405615,-43.0
7043.164217713307,-65.0
7043.171910020999,-33.0
7043.1796023286915,-48.0
7043.187294636384,-38.0
7043.194986944076,-19.0
7043.202679251768,-50.0
7043.21037155946,-19.0
7043.2180638671525,-19.0
7043.225756174845,-26.0
7043.233448482537,9.0
7043.241140790229,-12.0
7043.248833097921,4.0
7043.2565254056135,12.0
7043.264217713306,-12.0
7043.271910020998,19.0
7043.27960232869,2.0
7043.287294636382,2.0
7043.2949869440745,19.0
7043.302679251767,-19.0
7043.310371559459,-7.0
7043.318063867151,-21.0
7043.325756174843,-43.0
7043.3334484825355,-24.0
7043.341140790228,-62.0
7043.34883309792,-52.0
7043.356525405612,-43.0
7043.364217713304,-69.0
7043.371910020996,-38.0
7043.379602328689,-60.0
7043.387294636381,-65.0
7043.394986944073,-38.0
7043.402679251765,-67.0
7043.410371559457,-48.0
7043.41806386715,-52.0
7043.425756174842,-65.0
7043.433448482534,-36.0
7043.441140790226,-65.0
7043.448833097918,-52.0
7043.456525405611,-38.0
7043.464217713303,-62.0
7043.471910020995,-33.0
7043.479602328687,-55.0
7043.487294636379,-57.0
7043.494986944072,-36.0
7043.502679251764,-67.0
7043.510371559456,-43.0
7043.518063867148,-45.0
7043.52575617484,-62.0
7043.533448482533,-33.0
7043.541140790225,-65.0
7043.548833097917,-55.0
7043.556525405609,-40.0
7043.564217713301,-67.0
7043.5719100209935,-43.0
7043.579602328686,-60.0
7043.587294636378,-62.0
7043.59498694407,-38.0
7043.602679251762,-69.0
7043.6103715594545,-52.0
7043.618063867147,-55.0
7043.625756174839,-67.0
7043.633448482531,-38.0
7043.641140790223,-69.0
7043.6488330979155,-60.0
7043.656525405608,-48.0
7043.6642177133,-74.0
7043.671910020992,-50.0
7043.6841423251535,-72.0
7043.691834632846,-74.0
7043.699526940538,-48.0
7043.70721924823,-81.0
7043.714911555922,-52.0
7043.7226038636145,-40.0
7043.730296171307,-57.0
7043.737988478999,-36.0
7043.745680786691,-72.0
7043.753373094383,-67.0
7043.7610654020755,-55.0
7043.768757709768,-86.0
7043.77645001746,-57.0
7043.784142325152,-69.0
7043.791834632844,-79.0
7043.799526940536,-57.0
7043.807219248229,-84.0
7043.814911555921,-62.0
7043.822603863613,-65.0
7043.830296171305,-86.0
7043.837988478997,-65.0
7043.84568078669,-101.0
7043.853373094382,-4.0
7043.861065402074,277.0
7043.868757709766,440.0
7043.876450017458,301.0
7043.884142325151,-28.0
7043.891834632843,-120.0
7043.899526940535,-50.0
7043.907219248227,-122.0
7043.914911555919,-137.0
7043.922603863612,-110.0
7043.930296171304,-127.0
7043.937988478996,-105.0
7043.945680786688,-125.0
7043.95337309438,-113.0
7043.961065402073,-91.0
7043.968757709765,-125.0
7043.976450017457,-96.0
7043.984142325149,-98.0
7043.991834632841,-105.0
7043.9995269405335,-77.0
7044.007219248226,-103.0
7044.014911555918,-81.0
7044.02260386361,-74.0
7044.030296171302,-91.0
7044.0379884789945,-57.0
7044.045680786687,-84.0
7044.053373094379,-69.0
7044.061065402071,-43.0
7044.068757709763,-77.0
7044.0764500174555,-52.0
7044.084142325148,-60.0
7044.09183463284,-65.0
7044.099526940532,-26.0
7044.107219248224,-60.0
7044.1149115559165,-50.0
7044.122603863609,-43.0
7044.130296171301,-72.0
7044.137988478993,-52.0
7044.145680786685,-86.0
7044.1533730943775,-96.0
7044.16106540207,-86.0
7044.168757709762,-132.0
7044.176450017454,-120.0
7044.184142325146,-139.0
7044.191834632838,-156.0
7044.199526940531,-130.0
7044.207219248223,-158.0
7044.214911555915,-139.0
7044.222603863607,-132.0
7044.230296171299,-161.0
7044.237988478992,-127.0
7044.241263908154,-146.0
7044.248956215846,-142.0
7044.256648523538,-115.0
7044.264340831231,-144.0
7044.272033138923,-118.0
7044.279725446615,-120.0
7044.287417754307,-130.0
7044.295110061999,-98.0
7044.302802369692,-132.0
7044.310494677384,-113.0
7044.318186985076,-96.0
7044.325879292768,-120.0
7044.33357160046,-91.0
7044.3412639081525,-105.0
7044.348956215845,-103.0
7044.356648523537,-79.0
7044.364340831229,-110.0
7044.372033138921,-81.0
7044.3797254466135,-79.0
7044.387417754306,-96.0
7044.395110061998,-65.0
7044.40280236969,-89.0
7044.410494677382,-74.0
7044.4181869850745,-67.0
7044.425879292767,-91.0
7044.433571600459,-52.0
7044.441263908151,-67.0
7044.448956215843,-69.0
7044.4566485235355,-43.0
7044.464340831228,-72.0
7044.47203313892,-50.0
7044.479725446612,-50.0
7044.487417754304,-67.0
7044.4951100619965,-38.0
7044.502802369689,-62.0
7044.510494677381,-52.0
7044.518186985073,-40.0
7044.525879292765,-60.0
7044.533571600457,-21.0
7044.54126390815,-28.0
7044.548956215842,-26.0
7044.556648523534,-7.0
7044.564340831226,-50.0
7044.572033138918,-31.0
7044.579725446611,-26.0
7044.587417754303,-40.0
7044.595110061995,-14.0
7044.602802369687,-38.0
7044.610494677379,-21.0
7044.618186985072,-12.0
7044.625879292764,-38.0
7044.633571600456,-4.0
7044.641263908148,-19.0
7044.64895621584,-24.0
7044.656648523533,-12.0
7044.664340831225,-31.0
7044.672033138917,158.0
7044.679725446609,448.0
7044.687417754301,496.0
7044.695110061994,248.0
7044.702802369686,-36.0
7044.710494677378,-28.0
7044.71818698507,14.0
7044.725879292762,-60.0
7044.7335716004545,-31.0
7044.741263908147,-21.0
7044.748956215839,-33.0
7044.756648523531,-2.0
7044.764340831223,-12.0
7044.7720331389155,14.0
7044.779725446608,19.0
7044.7874177543,7.0
7044.795110061992,45.0
7044.832776887653,21.0
7044.840469195346,31.0
7044.848161503038,55.0
7044.85585381073,31.0
7044.863546118422,62.0
7044.871238426114,60.0
7044.878930733807,55.0
7044.886623041499,86.0
7044.894315349191,60.0
7044.902007656883,84.0
7044.909699964575,91.0
7044.9173922722675,72.0
7044.92508457996,103.0
7044.932776887652,79.0
7044.940469195344,84.0
7044.948161503036,103.0
7044.9558538107285,69.0
7044.963546118421,96.0
7044.971238426113,81.0
7044.978930733805,69.0
7044.986623041497,89.0
7044.9943153491895,43.0
7045.002007656882,50.0
7045.009699964574,45.0
7045.017392272266,14.0
7045.025084579958,38.0
7045.0327768876505,12.0
7045.040469195343,14.0
7045.048161503035,31.0
7045.055853810727,0.0
7045.063546118419,24.0
7045.071238426111,16.0
7045.078930733804,7.0
7045.086623041496,33.0
7045.094315349188,0.0
7045.10200765688,19.0
7045.109699964572,28.0
7045.117392272265,2.0
7045.125084579957,31.0
7045.132776887649,12.0
7045.140469195341,14.0
7045.148161503033,33.0
7045.155853810726,2.0
7045.163546118418,28.0
7045.17123842611,16.0
7045.178930733802,2.0
7045.186623041494,31.0
7045.194315349187,0.0
7045.202007656879,12.0
7045.209699964571,19.0
7045.217392272263,-9.0
7045.225084579955,16.0
7045.232776887648,-2.0
7045.24046919534,-2.0
7045.248161503032,16.0
7045.255853810724,-16.0
7045.263546118416,4.0
7045.2712384261085,-2.0
7045.278930733801,-19.0
7045.286623041493,9.0
7045.294315349185,-16.0
7045.302007656877,-4.0
7045.3096999645695,4.0
7045.317392272262,-26.0
7045.325084579954,0.0
7045.332776887646,-16.0
7045.340469195338,-21.0
7045.3481615030305,-2.0
7045.355853810723,-33.0
7045.363546118415,-9.0
7045.371238426107,-14.0
7045.378930733799,-31.0
7045.3866230414915,-2.0
7045.3674215546525,-33.0
7045.375113862345,-19.0
7045.382806170037,-2.0
7045.390498477729,-21.0
7045.398190785421,16.0
7045.4058830931135,0.0
7045.413575400806,-12.0
7045.421267708498,4.0
7045.42896001619,-31.0
7045.436652323882,-9.0
7045.4443446315745,-9.0
7045.452036939267,-28.0
7045.459729246959,0.0
7045.467421554651,-26.0
7045.475113862343,-19.0
7045.4828061700355,-4.0
7045.490498477728,-31.0
7045.49819078542,-4.0
7045.505883093112,-28.0
7045.513575400804,-48.0
7045.521267708496,19.0
7045.528960016189,204.0
7045.536652323881,508.0
7045.544344631573,532.0
7045.552036939265,214.0
7045.559729246957,-19.0
7045.56742155465,-62.0
7045.575113862342,-28.0
7045.582806170034,-50.0
7045.590498477726,-79.0
7045.598190785418,-38.0
7045.605883093111,-65.0
7045.613575400803,-67.0
7045.621267708495,-33.0
7045.628960016187,-69.0
7045.636652323879,-50.0
7045.644344631572,-40.0
7045.652036939264,-62.0
7045.659729246956,-31.0
7045.667421554648,-50.0
7045.67511386234,-38.0
7045.682806170033,-19.0
7045.690498477725,-50.0
7045.698190785417,-16.0
7045.705883093109,-24.0
7045.713575400801,-28.0
7045.7212677084935,2.0
7045.728960016186,-21.0
7045.736652323878,7.0
7045.74434463157,14.0
7045.752036939262,-7.0
7045.7597292469545,26.0
7045.767421554647,7.0
7045.775113862339,9.0
7045.782806170031,31.0
7045.790498477723,4.0
7045.7981907854155,16.0
7045.805883093108,7.0
7045.8135754008,-7.0
7045.821267708492,4.0
7045.828960016184,-26.0
7045.8366523238765,-26.0
7045.844344631569,-24.0
7045.852036939261,-45.0
7045.859729246953,-36.0
7045.867421554645,-45.0
7045.8751138623375,-50.0
7045.88280617003,-40.0
7045.890498477722,-55.0
7045.898190785414,-43.0
7045.905883093106,-48.0
7045.913575400798,-52.0
7045.921267708491,-40.0
7045.935060887654,-55.0
7045.942753195346,-48.0
7045.950445503038,-43.0
7045.9581378107305,-52.0
7045.965830118423,-38.0
7045.973522426115,-52.0
7045.981214733807,-43.0
7045.988907041499,-38.0
7045.9965993491915,-62.0
7046.004291656884,-33.0
7046.011983964576,-38.0
7046.019676272268,-50.0
7046.02736857996,-28.0
7046.035060887652,-50.0
7046.042753195345,-36.0
7046.050445503037,-33.0
7046.058137810729,-50.0
7046.065830118421,-24.0
7046.073522426113,-48.0
7046.081214733806,-50.0
7046.088907041498,-28.0
7046.09659934919,-55.0
7046.104291656882,-31.0
7046.111983964574,-38.0
7046.119676272267,-45.0
7046.127368579959,-19.0
7046.135060887651,-60.0
7046.142753195343,-52.0
7046.150445503035,-40.0
7046.158137810728,-67.0
7046.16583011842,-40.0
7046.173522426112,-60.0
7046.181214733804,-55.0
7046.188907041496,-31.0
7046.196599349189,-65.0
7046.204291656881,-43.0
7046.211983964573,-50.0
7046.219676272265,-65.0
7046.227368579957,-38.0
7046.2350608876495,-67.0
7046.242753195342,-40.0
7046.250445503034,-16.0
7046.258137810726,-43.0
7046.265830118418,-16.0
7046.2735224261105,-40.0
7046.281214733803,-45.0
7046.288907041495,-24.0
7046.296599349187,-52.0
7046.304291656879,-28.0
7046.3119839645715,-40.0
7046.319676272264,-57.0
7046.327368579956,-24.0
7046.335060887648,-55.0
7046.34275319534,-48.0
7046.3504455030325,-36.0
7046.358137810725,-65.0
7046.365830118417,-45.0
7046.373522426109,-72.0
7046.381214733801,26.0
7046.388907041493,327.0
7046.396599349186,517.0
7046.404291656878,416.0
7046.41198396457,74.0
7046.419676272262,-105.0
7046.427368579954,-40.0
7046.435060887647,-81.0
7046.442753195339,-113.0
7046.450445503031,-84.0
7046.458137810723,-96.0
7046.465830118415,-74.0
7046.473522426108,-93.0
7046.4812147338,-93.0
7046.488907041492,-65.0
7046.473101554153,-96.0
7046.480793861845,-74.0
7046.488486169537,-72.0
7046.4961784772295,-86.0
7046.503870784922,-52.0
7046.511563092614,-74.0
7046.519255400306,-65.0
7046.526947707998,-45.0
7046.5346400156905,-72.0
7046.542332323383,-43.0
7046.550024631075,-50.0
7046.557716938767,-52.0
7046.565409246459,-24.0
7046.573101554151,-50.0
7046.580793861844,-31.0
7046.588486169536,-24.0
7046.596178477228,-38.0
7046.60387078492,-12.0
7046.611563092612,-36.0
7046.619255400305,-26.0
7046.626947707997,-14.0
7046.634640015689,-48.0
7046.642332323381,-26.0
7046.650024631073,-48.0
7046.657716938766,-72.0
7046.665409246458,-55.0
7046.67310155415,-93.0
7046.680793861842,-86.0
7046.688486169534,-91.0
7046.696178477227,-118.0
7046.703870784919,-91.0
7046.711563092611,-113.0
7046.719255400303,-108.0
7046.726947707995,-91.0
7046.734640015688,-120.0
7046.74233232338,-101.0
7046.750024631072,-113.0
7046.757716938764,-118.0
7046.765409246456,-91.0
7046.7731015541485,-125.0
7046.780793861841,-108.0
7046.788486169533,-96.0
7046.796178477225,-125.0
7046.803870784917,-101.0
7046.8115630926095,-115.0
7046.819255400302,-113.0
7046.826947707994,-101.0
7046.834640015686,-130.0
7046.842332323378,-103.0
7046.8500246310705,-113.0
7046.857716938763,-125.0
7046.865409246455,-96.0
7046.873101554147,-127.0
7046.880793861839,-115.0
7046.8884861695315,-113.0
7046.896178477224,-134.0
7046.903870784916,-105.0
7046.911563092608,-130.0
7046.9192554003,-134.0
7046.926947707992,-122.0
7046.934640015685,-151.0
7046.942332323377,-125.0
7046.950024631069,-132.0
7046.957716938761,-154.0
7046.965409246453,-122.0
7046.973101554146,-151.0
7046.980793861838,-151.0
7046.98848616953,-142.0
7046.996178477222,-154.0
7047.003870784914,-125.0
7047.011563092607,-156.0
7047.019255400299,-161.0
7047.026947707991,-134.0
7047.018346596153,-161.0
7047.026038903845,-146.0
7047.033731211537,-158.0
7047.041423519229,-171.0
7047.0491158269215,-130.0
7047.056808134614,-154.0
7047.064500442306,-144.0
7047.072192749998,-139.0
7047.07988505769,-168.0
7047.0875773653825,-144.0
7047.095269673075,-166.0
7047.102961980767,-166.0
7047.110654288459,-139.0
7047.118346596151,-175.0
7047.126038903843,-158.0
7047.133731211536,-163.0
7047.141423519228,-173.0
7047.14911582692,-139.0
7047.156808134612,-171.0
7047.164500442304,-168.0
7047.172192749997,-168.0
7047.179885057689,-180.0
7047.187577365381,9.0
7047.195269673073,274.0
7047.202961980765,358.0
7047.210654288458,127.0
7047.21834659615,-175.0
7047.226038903842,-180.0
7047.233731211534,-161.0
7047.241423519226,-226.0
7047.249115826919,-197.0
7047.256808134611,-197.0
7047.264500442303,-195.0
7047.272192749995,-190.0
7047.279885057687,-204.0
7047.28757736538,-175.0
7047.295269673072,-195.0
7047.302961980764,-192.0
7047.310654288456,-163.0
7047.318346596148,-197.0
7047.3260389038405,-168.0
7047.333731211533,-161.0
7047.341423519225,-178.0
7047.349115826917,-139.0
7047.356808134609,-158.0
7047.3645004423015,-146.0
7047.372192749994,-125.0
7047.379885057686,-142.0
7047.387577365378,-108.0
7047.39526967307,-115.0
7047.4029619807625,-105.0
7047.410654288455,-65.0
7047.418346596147,-101.0
7047.426038903839,-77.0
7047.433731211531,-62.0
7047.4414235192235,-81.0
7047.449115826916,-52.0
7047.456808134608,-72.0
7047.4645004423,-62.0
7047.472192749992,-55.0
7047.479885057684,-96.0
7047.487577365377,-74.0
7047.495269673069,-91.0
7047.502961980761,-93.0
7047.510654288453,-69.0
7047.518346596145,-118.0
7047.526038903838,-108.0
7047.53373121153,-98.0
7047.541423519222,-113.0
7047.549115826914,-81.0
7047.556808134606,-101.0
7047.564500442299,-86.0
7047.572192749991,-60.0
7047.591565554154,-93.0
7047.599257861846,-72.0
7047.606950169538,-79.0
7047.6146424772305,-81.0
7047.622334784923,-60.0
7047.630027092615,-86.0
7047.637719400307,-50.0
7047.645411707999,-48.0
7047.6531040156915,-81.0
7047.660796323384,-43.0
7047.668488631076,-48.0
7047.676180938768,-43.0
7047.68387324646,-24.0
7047.6915655541525,-40.0
7047.699257861845,-19.0
7047.706950169537,-38.0
7047.714642477229,-38.0
7047.722334784921,-2.0
7047.730027092613,-36.0
7047.737719400306,-19.0
7047.745411707998,-9.0
7047.75310401569,-31.0
7047.760796323382,0.0
7047.768488631074,-19.0
7047.776180938767,-14.0
7047.783873246459,12.0
7047.791565554151,-14.0
7047.799257861843,9.0
7047.806950169535,2.0
7047.814642477228,0.0
7047.82233478492,31.0
7047.830027092612,2.0
7047.837719400304,16.0
7047.845411707996,24.0
7047.853104015689,0.0
7047.860796323381,28.0
7047.868488631073,9.0
7047.876180938765,12.0
7047.883873246457,33.0
7047.89156555415,16.0
7047.899257861842,55.0
7047.906950169534,57.0
7047.914642477226,40.0
7047.922334784918,60.0
7047.9300270926105,28.0
7047.937719400303,45.0
7047.945411707995,55.0
7047.953104015687,36.0
7047.960796323379,67.0
7047.9684886310715,55.0
7047.976180938764,60.0
7047.983873246456,77.0
7047.991565554148,50.0
7047.99925786184,79.0
7048.0069501695325,81.0
7048.014642477225,65.0
7048.022334784917,89.0
7048.030027092609,161.0
7048.037719400301,452.0
7048.0454117079935,684.0
7048.053104015686,532.0
7048.060796323378,221.0
7048.06848863107,55.0
7048.076180938762,89.0
7048.0838732464545,101.0
7048.091565554147,48.0
7048.099257861839,98.0
7048.106950169531,108.0
7048.114642477223,89.0
7048.122334784915,125.0
7048.130027092608,101.0
7048.1377194003,105.0
7048.145411707992,118.0
7048.329378137654,96.0
7048.337070445346,118.0
7048.344762753039,101.0
7048.352455060731,98.0
7048.360147368423,118.0
7048.367839676115,86.0
7048.375531983807,113.0
7048.3832242915,115.0
7048.390916599192,98.0
7048.398608906884,127.0
7048.406301214576,105.0
7048.413993522268,118.0
7048.421685829961,130.0
7048.429378137653,108.0
7048.437070445345,137.0
7048.444762753037,122.0
7048.452455060729,118.0
7048.4601473684215,137.0
7048.467839676114,108.0
7048.475531983806,125.0
7048.483224291498,120.0
7048.49091659919,96.0
7048.4986089068825,110.0
7048.506301214575,72.0
7048.513993522267,72.0
7048.521685829959,77.0
7048.529378137651,43.0
7048.5370704453435,60.0
7048.544762753036,43.0
7048.552455060728,36.0
7048.56014736842,57.0
7048.567839676112,26.0
7048.5755319838045,43.0
7048.583224291497,43.0
7048.590916599189,26.0
7048.598608906881,48.0
7048.606301214573,21.0
7048.613993522265,24.0
7048.621685829958,38.0
7048.62937813765,12.0
7048.637070445342,33.0
7048.644762753034,21.0
7048.652455060726,19.0
7048.660147368419,40.0
7048.667839676111,12.0
7048.675531983803,31.0
7048.683224291495,33.0
7048.690916599187,12.0
7048.69860890688,36.0
7048.706301214572,14.0
7048.713993522264,16.0
7048.721685829956,28.0
7048.729378137648,2.0
7048.737070445341,26.0
7048.744762753033,12.0
7048.752455060725,0.0
7048.760147368417,21.0
7048.767839676109,-4.0
7048.775531983802,7.0
7048.783224291494,4.0
7048.790916599186,-16.0
7048.798608906878,7.0
7048.80630121457,-16.0
7048.8139935222625,-9.0
7048.821685829955,7.0
7048.829378137647,-21.0
7048.837070445339,2.0
7048.844762753031,-7.0
7048.8524550607235,-19.0
7048.860147368416,4.0
7048.867839676108,-21.0
7048.8755319838,-9.0
7048.883224291492,-7.0
7048.752600304653,-33.0
7048.760292612345,-7.0
7048.767984920038,-21.0
7048.77567722773,-4.0
7048.783369535422,19.0
7048.791061843114,-9.0
7048.798754150806,2.0
7048.806446458499,-12.0
7048.814138766191,-24.0
7048.821831073883,0.0
7048.829523381575,-33.0
7048.837215689267,-19.0
7048.84490799696,-12.0
7048.852600304652,-36.0
7048.860292612344,-14.0
7048.867984920036,-33.0
7048.875677227728,-31.0
7048.883369535421,-12.0
7048.891061843113,-43.0
7048.898754150805,-40.0
7048.906446458497,-26.0
7048.914138766189,146.0
7048.921831073882,464.0
7048.929523381574,517.0
7048.937215689266,264.0
7048.944907996958,-14.0
7048.95260030465,-72.0
7048.9602926123425,-16.0
7048.967984920035,-74.0
7048.975677227727,-79.0
7048.983369535419,-38.0
7048.991061843111,-74.0
7048.9987541508035,-57.0
7049.006446458496,-50.0
7049.014138766188,-60.0
7049.02183107388,-36.0
7049.029523381572,-57.0
7049.0372156892645,-40.0
7049.044907996957,-33.0
7049.052600304649,-55.0
7049.060292612341,-26.0
7049.067984920033,-38.0
7049.0756772277255,-36.0
7049.083369535418,-12.0
7049.09106184311,-36.0
7049.098754150802,-12.0
7049.106446458494,-9.0
7049.114138766186,-14.0
7049.121831073879,14.0
7049.129523381571,-7.0
7049.137215689263,7.0
7049.144907996955,24.0
7049.152600304647,2.0
7049.16029261234,28.0
7049.167984920032,14.0
7049.175677227724,14.0
7049.183369535416,36.0
7049.191061843108,4.0
7049.198754150801,16.0
7049.206446458493,7.0
7049.214138766185,-19.0
7049.221831073877,-2.0
7049.229523381569,-33.0
7049.237215689262,-26.0
7049.244907996954,-19.0
7049.252600304646,-48.0
7049.260292612338,-21.0
7049.26798492003,-36.0
7049.275677227723,-40.0
7049.283369535415,-16.0
7049.291061843107,-45.0
7049.298754150799,-31.0
7049.306446458491,-28.0
7049.293044387654,-45.0
7049.300736695346,-21.0
7049.308429003038,-45.0
7049.3161213107305,-36.0
7049.323813618423,-24.0
7049.331505926115,-50.0
7049.339198233807,-26.0
7049.346890541499,-38.0
7049.3545828491915,-45.0
7049.362275156884,-24.0
7049.369967464576,-52.0
7049.377659772268,-36.0
7049.38535207996,-36.0
7049.3930443876525,-52.0
7049.400736695345,-26.0
7049.408429003037,-50.0
7049.416121310729,-43.0
7049.423813618421,-31.0
7049.4315059261135,-62.0
7049.439198233806,-38.0
7049.446890541498,-45.0
7049.45458284919,-55.0
7049.462275156882,-38.0
7049.469967464574,-65.0
7049.477659772267,-48.0
7049.485352079959,-48.0
7049.493044387651,-69.0
7049.500736695343,-45.0
7049.508429003035,-67.0
7049.516121310728,-55.0
7049.52381361842,-43.0
7049.531505926112,-77.0
7049.539198233804,-48.0
7049.546890541496,-57.0
7049.554582849189,-69.0
7049.562275156881,-48.0
7049.569967464573,-74.0
7049.577659772265,-55.0
7049.585352079957,-43.0
7049.59304438765,-52.0
7049.600736695342,-24.0
7049.608429003034,-57.0
7049.616121310726,-65.0
7049.623813618418,-48.0
7049.631505926111,-72.0
7049.639198233803,-45.0
7049.646890541495,-52.0
7049.654582849187,-62.0
7049.662275156879,-45.0
7049.6699674645715,-74.0
7049.677659772264,-55.0
7049.685352079956,-45.0
7049.693044387648,-67.0
7049.70073669534,-43.0
7049.7084290030325,-79.0
7049.716121310725,-60.0
7049.723813618417,134.0
7049.731505926109,387.0
7049.739198233801,467.0
7049.7468905414935,180.0
7049.754582849186,-84.0
7049.762275156878,-65.0
7049.76996746457,-72.0
7049.777659772262,-105.0
7049.7853520799545,-98.0
7049.793044387647,-101.0
7049.800736695339,-89.0
7049.808429003031,-115.0
7049.816121310723,-105.0
7049.823813618415,-89.0
7049.831505926108,-120.0
7049.8391982338,-91.0
7049.846890541492,-93.0
7049.837202554654,-110.0
7049.844894862346,-81.0
7049.8525871700385,-105.0
7049.860279477731,-91.0
7049.867971785423,-81.0
7049.875664093115,-108.0
7049.883356400807,-74.0
7049.8910487084995,-84.0
7049.898741016192,-93.0
7049.906433323884,-81.0
7049.914125631576,-101.0
7049.921817939268,-72.0
7049.9295102469605,-77.0
7049.937202554653,-84.0
7049.944894862345,-57.0
7049.952587170037,-89.0
7049.960279477729,-81.0
7049.9679717854215,-72.0
7049.975664093114,-96.0
7049.983356400806,-77.0
7049.991048708498,-105.0
7049.99874101619,-118.0
7050.006433323882,-101.0
7050.014125631575,-146.0
7050.021817939267,-146.0
7050.029510246959,-151.0
7050.037202554651,-166.0
7050.044894862343,-151.0
7050.052587170036,-185.0
7050.060279477728,-168.0
7050.06797178542,-154.0
7050.075664093112,-180.0
7050.083356400804,-158.0
7050.091048708497,-173.0
7050.098741016189,-173.0
7050.106433323881,-151.0
7050.114125631573,-187.0
7050.121817939265,-168.0
7050.129510246958,-166.0
7050.13720255465,-183.0
7050.144894862342,-163.0
7050.152587170034,-187.0
7050.160279477726,-175.0
7050.167971785419,-166.0
7050.175664093111,-197.0
7050.183356400803,-171.0
7050.191048708495,-180.0
7050.198741016187,-187.0
7050.2064333238795,-171.0
7050.214125631572,-199.0
7050.221817939264,-178.0
7050.229510246956,-180.0
7050.237202554648,-199.0
7050.2448948623405,-166.0
7050.252587170033,-185.0
7050.260279477725,-180.0
7050.267971785417,-166.0
7050.275664093109,-185.0
7050.2833564008015,-151.0
7050.291048708494,-161.0
7050.298741016186,-168.0
7050.306433323878,-142.0
7050.31412563157,-166.0
7050.3218179392625,-146.0
7050.329510246955,-139.0
7050.337202554647,-149.0
7050.344894862339,-125.0
7050.352587170031,-149.0
7050.360279477723,-132.0
7050.367971785416,-105.0
7050.375664093108,-122.0
7050.3833564008,-86.0
7050.391048708492,-91.0
7050.404269470655,-105.0
7050.411961778347,-86.0
7050.419654086039,-113.0
7050.427346393732,-93.0
7050.435038701424,-86.0
7050.442731009116,-105.0
7050.450423316808,-81.0
7050.4581156245,-101.0
7050.465807932193,-91.0
7050.473500239885,-74.0
7050.481192547577,-98.0
7050.488884855269,-72.0
7050.496577162961,-79.0
7050.5042694706535,-98.0
7050.511961778346,-31.0
7050.519654086038,168.0
7050.52734639373,450.0
7050.535038701422,395.0
7050.5427310091145,43.0
7050.550423316807,-86.0
7050.558115624499,-50.0
7050.565807932191,-55.0
7050.573500239883,-84.0
7050.5811925475755,-89.0
7050.588884855268,-52.0
7050.59657716296,-72.0
7050.604269470652,-74.0
7050.611961778344,-38.0
7050.6196540860365,-65.0
7050.627346393729,-48.0
7050.635038701421,-33.0
7050.642731009113,-48.0
7050.650423316805,-16.0
7050.658115624497,-28.0
7050.66580793219,-21.0
7050.673500239882,4.0
7050.681192547574,-16.0
7050.688884855266,12.0
7050.696577162958,16.0
7050.704269470651,16.0
7050.711961778343,48.0
7050.719654086035,28.0
7050.727346393727,52.0
7050.735038701419,69.0
7050.742731009112,52.0
7050.750423316804,86.0
7050.758115624496,74.0
7050.765807932188,77.0
7050.77350023988,96.0
7050.781192547573,65.0
7050.788884855265,84.0
7050.796577162957,77.0
7050.804269470649,55.0
7050.811961778341,72.0
7050.819654086034,38.0
7050.827346393726,43.0
7050.835038701418,48.0
7050.84273100911,19.0
7050.850423316802,38.0
7050.8581156244945,19.0
7050.865807932187,19.0
7050.873500239879,40.0
7050.881192547571,14.0
7050.888884855263,40.0
7050.8965771629555,43.0
7050.904269470648,36.0
7050.91196177834,74.0
7050.919654086032,57.0
7050.927346393724,74.0
7050.9350387014165,93.0
7050.942731009109,79.0
7050.950423316801,105.0
7050.958115624493,89.0
7050.947665387654,86.0
7050.955357695346,110.0
7050.963050003038,81.0
7050.97074231073,93.0
7050.978434618422,91.0
7050.986126926115,74.0
7050.993819233807,96.0
7051.001511541499,67.0
7051.009203849191,77.0
7051.016896156883,86.0
7051.024588464576,55.0
7051.032280772268,79.0
7051.03997307996,65.0
7051.047665387652,60.0
7051.055357695344,79.0
7051.063050003037,52.0
7051.070742310729,72.0
7051.078434618421,72.0
7051.086126926113,52.0
7051.093819233805,77.0
7051.1015115414975,52.0
7051.10920384919,57.0
7051.116896156882,69.0
7051.124588464574,40.0
7051.132280772266,65.0
7051.1399730799585,48.0
7051.147665387651,38.0
7051.155357695343,57.0
7051.163050003035,24.0
7051.170742310727,40.0
7051.1784346184195,43.0
7051.186126926112,31.0
7051.193819233804,65.0
7051.201511541496,50.0
7051.209203849188,50.0
7051.2168961568805,55.0
7051.224588464573,24.0
7051.232280772265,40.0
7051.239973079957,26.0
7051.247665387649,19.0
7051.255357695341,43.0
7051.263050003034,14.0
7051.270742310726,28.0
7051.278434618418,28.0
7051.28612692611,7.0
7051.293819233802,31.0
7051.301511541495,7.0
7051.309203849187,4.0
7051.316896156879,2.0
7051.324588464571,24.0
7051.332280772263,274.0
7051.339973079956,541.0
7051.347665387648,527.0
7051.35535769534,233.0
7051.363050003032,-43.0
7051.370742310724,-26.0
7051.378434618417,-2.0
7051.386126926109,-65.0
7051.393819233801,-38.0
7051.401511541493,-38.0
7051.409203849185,-43.0
7051.416896156878,-31.0
7051.42458846457,-48.0
7051.432280772262,-24.0
7051.439973079954,-31.0
7051.447665387646,-38.0
7051.4553576953385,-12.0
7051.463050003031,-38.0
7051.470742310723,-19.0
7051.478434618415,-12.0
7051.486126926107,-31.0
7051.4938192337995,0.0
7051.501511541492,-12.0
7051.543709928654,-7.0
7051.551402236346,14.0
7051.559094544038,-9.0
7051.56678685173,14.0
7051.5744791594225,14.0
7051.582171467115,7.0
7051.589863774807,33.0
7051.597556082499,9.0
7051.605248390191,24.0
7051.6129406978835,33.0
7051.620633005576,12.0
7051.628325313268,33.0
7051.63601762096,16.0
7051.643709928652,14.0
7051.651402236344,26.0
7051.659094544037,-9.0
7051.666786851729,4.0
7051.674479159421,-7.0
7051.682171467113,-28.0
7051.689863774805,-9.0
7051.697556082498,-36.0
7051.70524839019,-26.0
7051.712940697882,-16.0
7051.720633005574,-43.0
7051.728325313266,-19.0
7051.736017620959,-36.0
7051.743709928651,-33.0
7051.751402236343,-16.0
7051.759094544035,-45.0
7051.766786851727,-21.0
7051.77447915942,-24.0
7051.782171467112,-38.0
7051.789863774804,-14.0
7051.797556082496,-38.0
7051.805248390188,-26.0
7051.812940697881,-16.0
7051.820633005573,-43.0
7051.828325313265,-16.0
7051.836017620957,-33.0
7051.843709928649,-38.0
7051.8514022363415,-16.0
7051.859094544034,-40.0
7051.866786851726,-19.0
7051.874479159418,-24.0
7051.88217146711,-43.0
7051.8898637748025,-19.0
7051.897556082495,-43.0
7051.905248390187,-36.0
7051.912940697879,-24.0
7051.920633005571,-48.0
7051.9283253132635,-24.0
7051.936017620956,-40.0
7051.943709928648,-43.0
7051.95140223634,-21.0
7051.959094544032,-50.0
7051.9667868517245,-31.0
7051.974479159417,-31.0
7051.982171467109,-45.0
7051.989863774801,-19.0
7051.997556082493,-43.0
7052.005248390185,-40.0
7052.012940697878,-33.0
7052.02063300557,-57.0
7052.028325313262,-31.0
7052.036017620954,-33.0
7052.043709928646,-26.0
7052.051402236339,-7.0
7052.059094544031,-43.0
7052.066786851723,-31.0
7052.074479159415,-36.0
7052.082171467107,-55.0
7052.0898637748,-26.0
7052.097556082492,-48.0
7052.087003803654,-43.0
7052.094696111346,-31.0
7052.102388419038,-57.0
7052.11008072673,-33.0
7052.1177730344225,-45.0
7052.125465342115,-50.0
7052.133157649807,-26.0
7052.140849957499,-67.0
7052.148542265191,-57.0
7052.1562345728835,62.0
7052.163926880576,322.0
7052.171619188268,534.0
7052.17931149596,346.0
7052.187003803652,21.0
7052.1946961113445,-77.0
7052.202388419037,-65.0
7052.210080726729,-65.0
7052.217773034421,-101.0
7052.225465342113,-86.0
