time_lsl,uV
177055.81633145237,-142.0
177055.82401433066,-145.0
177055.83169720892,-150.0
177055.8393800872,-152.0
177055.8470629655,-150.0
177055.85474584377,-138.0
177055.86242872206,-113.0
177055.87011160035,-101.0
177055.8777944786,-113.0
177055.8854773569,-133.0
177055.8931602352,-145.0
177055.90084311346,-152.0
177055.90852599175,-152.0
177055.91620887004,-154.0
177055.9238917483,-159.0
177055.9315746266,-152.0
177055.93925750488,-150.0
177055.94694038315,-154.0
177055.95462326144,-157.0
177055.96230613973,-150.0
177055.969989018,-142.0
177055.97767189628,-154.0
177055.98535477457,-164.0
177055.99303765286,12.0
177056.00072053113,496.0
177056.00840340942,912.0
177056.0160862877,694.0
177056.02376916597,46.0
177056.03145204426,-251.0
177056.03913492255,-171.0
177056.04681780082,-188.0
177056.0545006791,-263.0
177056.0621835574,-234.0
177056.06986643566,-222.0
177056.07754931395,-239.0
177056.08523219224,-225.0
177056.0929150705,-205.0
177056.1005979488,-203.0
177056.1082808271,-200.0
177056.11596370535,-196.0
177056.12364658364,-184.0
177056.13132946193,-174.0
177056.1390123402,-176.0
177056.1466952185,-181.0
177056.15437809678,-174.0
177056.16206097504,-157.0
177056.16974385333,-147.0
177056.17742673162,-142.0
177056.18510960988,-135.0
177056.19279248817,-123.0
177056.20047536647,-111.0
177056.20815824473,-101.0
177056.21584112302,-92.0
177056.2235240013,-84.0
177056.23120687957,-75.0
177056.23888975786,-67.0
177056.24657263616,-65.0
177056.25425551442,-65.0
177056.2619383927,-67.0
177056.269621271,-70.0
177056.27730414926,-77.0
177056.28498702755,-89.0
177056.29266990584,-108.0
177056.30035278414,-130.0
177056.3080356624,-152.0
177056.3157185407,-167.0
177056.32340141898,-179.0
177056.33108429724,-186.0
177056.33876717553,-186.0
177056.34645005382,-184.0
177056.3541329321,-186.0
177056.36181581038,-188.0
177056.36949868867,-188.0
177056.37718156693,-186.0
177056.38486444522,-188.0
177056.3925473235,-191.0
177056.40023020178,-186.0
177056.40791308007,-181.0
177056.41559595836,-179.0
177056.42327883662,-179.0
177056.4309617149,-176.0
177056.4386445932,-171.0
177056.44632747147,-167.0
177056.45401034976,-167.0
177056.46169322805,-164.0
177056.4693761063,-159.0
177056.4770589846,-157.0
177056.4847418629,-157.0
177056.49242474115,-157.0
177056.50010761945,-157.0
177056.50779049774,-154.0
177056.515473376,-157.0
177056.5231562543,-159.0
177056.53083913258,-159.0
177056.53852201084,-162.0
177056.54620488913,-162.0
177056.55388776743,-164.0
177056.5615706457,-169.0
177056.56925352398,-169.0
177056.57693640227,-167.0
177056.58461928053,-164.0
177056.59230215882,-164.0
177056.59998503712,-167.0
177056.60766791538,-164.0
177056.61535079367,-162.0
177056.62303367196,-159.0
177056.63071655025,-162.0
177056.6383994285,-164.0
177056.6460823068,-164.0
177056.6537651851,-169.0
177056.66144806336,-174.0
177056.66913094165,-164.0
177056.67681381994,-147.0
177056.6844966982,-125.0
177056.6921795765,-113.0
177056.69986245479,-123.0
177056.70754533305,-140.0
177056.71522821134,-150.0
177056.72291108963,-154.0
177056.7305939679,-152.0
177056.73827684618,-152.0
177056.74595972447,-157.0
177056.75364260274,-162.0
177056.76132548103,-162.0
177056.76900835932,-162.0
177056.77669123758,-162.0
177056.78437411587,-159.0
177056.79205699416,-154.0
177056.79973987243,-167.0
177056.80742275072,-191.0
177056.815105629,-60.0
177056.82278850727,409.0
177056.83047138556,883.0
177056.83815426385,748.0
177056.84583714211,104.0
177056.8535200204,-249.0
177056.8612028987,-174.0
177056.86888577696,-171.0
177056.87656865525,-256.0
177056.88425153354,-237.0
177056.8919344118,-210.0
177056.8996172901,-230.0
177056.9073001684,-222.0
177056.91498304665,-203.0
177056.92266592494,-205.0
177056.93034880323,-203.0
177056.93803168152,-196.0
177056.94571455978,-191.0
177056.95339743808,-184.0
177056.96108031637,-176.0
177056.96876319463,-167.0
177056.97644607292,-152.0
177056.9841289512,-140.0
177056.99181182947,-138.0
177056.99949470776,-133.0
177057.00717758606,-121.0
177057.01486046432,-111.0
177057.0225433426,-104.0
177057.0302262209,-92.0
177057.03790909916,-82.0
177057.04559197745,-72.0
177057.05327485575,-65.0
177057.060957734,-55.0
177057.0686406123,-50.0
177057.0763234906,-46.0
177057.08400636885,-43.0
177057.09168924714,-53.0
177057.09937212543,-65.0
177057.1070550037,-82.0
177057.114737882,-108.0
177057.12242076028,-138.0
177057.13010363854,-152.0
177057.13778651683,-164.0
177057.14546939512,-184.0
177057.1531522734,-193.0
177057.16083515168,-188.0
177057.16851802997,-191.0
177057.17620090823,-196.0
177057.18388378652,-193.0
177057.1915666648,-193.0
177057.19924954307,-188.0
177057.20693242137,-184.0
177057.21461529966,-181.0
177057.22229817792,-181.0
177057.2299810562,-174.0
177057.2376639345,-171.0
177057.24534681276,-167.0
177057.25302969106,-154.0
177057.26071256935,-154.0
177057.26839544764,-154.0
177057.2760783259,-150.0
177057.2837612042,-145.0
177057.29144408248,-145.0
177057.29912696074,-142.0
177057.30680983904,-138.0
177057.31449271733,-130.0
177057.3221755956,-130.0
177057.32985847388,-135.0
177057.33754135217,-135.0
177057.34522423043,-133.0
177057.35290710873,-133.0
177057.36058998702,-130.0
177057.36827286528,-133.0
177057.37595574357,-138.0
177057.38363862186,-135.0
177057.39132150012,-130.0
177057.3990043784,-128.0
177057.4066872567,-125.0
177057.41437013497,-128.0
177057.42205301326,-130.0
177057.42973589155,-128.0
177057.4374187698,-123.0
177057.4451016481,-123.0
177057.4527845264,-125.0
177057.46046740466,-125.0
177057.46815028295,-128.0
177057.47583316124,-130.0
177057.4835160395,-128.0
177057.4911989178,-111.0
177057.49888179608,-92.0
177057.50656467435,-79.0
177057.51424755264,-82.0
177057.52193043093,-96.0
177057.5296133092,-116.0
177057.53729618748,-128.0
177057.54497906577,-123.0
177057.55266194404,-116.0
177057.56034482233,-121.0
177057.56802770062,-130.0
177057.5757105789,-135.0
177057.58339345717,-138.0
177057.59107633546,-138.0
177057.59875921375,-145.0
177057.60644209202,-145.0
177057.6141249703,-140.0
177057.6218078486,-162.0
177057.62949072686,-94.0
177057.63717360515,300.0
177057.64485648344,818.0
177057.6525393617,755.0
177057.66022224,94.0
177057.6679051183,-278.0
177057.67558799655,-162.0
177057.68327087484,-135.0
177057.69095375313,-227.0
177057.6986366314,-205.0
177057.70631950969,-181.0
177057.71400238798,-208.0
177057.72168526624,-198.0
177057.72936814453,-171.0
177057.73705102282,-176.0
177057.74473390108,-174.0
177057.75241677937,-154.0
177057.76009965767,-150.0
177057.76778253593,-152.0
177057.77546541422,-145.0
177057.7831482925,-135.0
177057.79083117077,-130.0
177057.79851404906,-121.0
177057.80619692735,-108.0
177057.81387980562,-99.0
177057.8215626839,-92.0
177057.8292455622,-77.0
177057.83692844046,-67.0
177057.84461131875,-58.0
177057.85229419704,-43.0
177057.8599770753,-36.0
177057.8676599536,-29.0
177057.8753428319,-16.0
177057.88302571015,-12.0
177057.89070858844,-12.0
177057.89839146673,-12.0
177057.90607434502,-14.0
177057.9137572233,-24.0
177057.92144010158,-50.0
177057.92912297987,-79.0
177057.93680585813,-108.0
177057.94448873642,-138.0
177057.9521716147,-159.0
177057.95985449298,-174.0
177057.96753737127,-186.0
177057.97522024956,-193.0
177057.98290312782,-196.0
177057.9905860061,-198.0
177057.9982688844,-198.0
177058.00595176267,-193.0
177058.01363464096,-191.0
177058.02131751925,-191.0
177058.0290003975,-186.0
177058.0366832758,-184.0
177058.0443661541,-181.0
177058.05204903235,-179.0
177058.05973191065,-174.0
177058.06741478894,-176.0
177058.0750976672,-174.0
177058.0827805455,-167.0
177058.09046342378,-159.0
177058.09814630204,-157.0
177058.10582918033,-157.0
177058.11351205863,-154.0
177058.1211949369,-152.0
177058.12887781518,-150.0
177058.13656069347,-147.0
177058.14424357173,-147.0
177058.15192645002,-147.0
177058.15960932832,-152.0
177058.16729220658,-157.0
177058.17497508487,-152.0
177058.18265796316,-147.0
177058.19034084142,-150.0
177058.1980237197,-152.0
177058.205706598,-150.0
177058.2133894763,-150.0
177058.22107235456,-150.0
177058.22875523285,-147.0
177058.23643811114,-147.0
177058.2441209894,-147.0
177058.2518038677,-147.0
177058.25948674598,-147.0
177058.26716962425,-145.0
177058.27485250254,-145.0
177058.28253538083,-145.0
177058.2902182591,-150.0
177058.29790113738,-152.0
177058.30558401567,-142.0
177058.31326689394,-121.0
177058.32094977223,-99.0
177058.32863265052,-94.0
177058.33631552878,-113.0
177058.34399840707,-133.0
177058.35168128536,-142.0
177058.35936416363,-145.0
177058.36704704192,-142.0
177058.3747299202,-142.0
177058.38241279847,-147.0
177058.39009567676,-147.0
177058.39777855505,-147.0
177058.4054614333,-147.0
177058.4131443116,-147.0
177058.4208271899,-147.0
177058.42851006816,-150.0
177058.43619294645,-179.0
177058.44387582474,-152.0
177058.451558703,164.0
177058.4592415813,723.0
177058.4669244596,905.0
177058.47460733785,384.0
177058.48229021614,-188.0
177058.48997309443,-232.0
177058.4976559727,-140.0
177058.50533885098,-225.0
177058.51302172928,-251.0
177058.52070460757,-210.0
177058.52838748583,-222.0
177058.53607036412,-234.0
177058.5437532424,-210.0
177058.55143612067,-203.0
177058.55911899896,-203.0
177058.56680187726,-193.0
177058.57448475552,-191.0
177058.5821676338,-193.0
177058.5898505121,-186.0
177058.59753339036,-176.0
177058.60521626865,-171.0
177058.61289914694,-167.0
177058.6205820252,-157.0
177058.6282649035,-147.0
177058.6359477818,-138.0
177058.64363066005,-130.0
177058.65131353834,-118.0
177058.65899641663,-106.0
177058.6666792949,-99.0
177058.6743621732,-92.0
177058.68204505148,-82.0
177058.68972792974,-72.0
177058.69741080803,-70.0
177058.70509368632,-67.0
177058.7127765646,-67.0
177058.72045944288,-67.0
177058.72814232117,-75.0
177058.73582519943,-89.0
177058.74350807772,-108.0
177058.751190956,-133.0
177058.75887383427,-157.0
177058.76655671257,-174.0
177058.77423959086,-186.0
177058.78192246912,-196.0
177058.7896053474,-203.0
177058.7972882257,-205.0
177058.80497110396,-203.0
177058.81265398226,-198.0
177058.82033686055,-198.0
177058.8280197388,-198.0
177058.8357026171,-193.0
177058.8433854954,-193.0
177058.85106837368,-198.0
177058.85875125194,-196.0
177058.86643413024,-188.0
177058.87411700853,-186.0
177058.8817998868,-181.0
177058.88948276508,-176.0
177058.89716564337,-171.0
177058.90484852163,-169.0
177058.91253139992,-164.0
177058.92021427822,-159.0
177058.92789715648,-154.0
177058.93558003477,-154.0
177058.94326291306,-152.0
177058.95094579132,-152.0
177058.9586286696,-152.0
177058.9663115479,-150.0
177058.97399442617,-150.0
177058.98167730446,-152.0
177058.98936018275,-150.0
177058.997043061,-147.0
177059.0047259393,-150.0
177059.0124088176,-150.0
177059.02009169586,-147.0
177059.02777457415,-147.0
177059.03545745244,-152.0
177059.0431403307,-152.0
177059.050823209,-147.0
177059.05850608728,-147.0
177059.06618896555,-150.0
177059.07387184384,-150.0
177059.08155472213,-150.0
177059.0892376004,-154.0
177059.09692047868,-157.0
177059.10460335697,-154.0
177059.11228623523,-154.0
177059.11996911353,-154.0
177059.12765199182,-157.0
177059.13533487008,-164.0
177059.14301774837,-162.0
177059.15070062666,-145.0
177059.15838350495,-121.0
177059.16606638322,-101.0
177059.1737492615,-106.0
177059.1814321398,-123.0
177059.18911501806,-138.0
177059.19679789635,-145.0
177059.20448077464,-145.0
177059.2121636529,-145.0
177059.2198465312,-147.0
177059.2275294095,-150.0
177059.23521228775,-152.0
177059.24289516604,-154.0
177059.25057804433,-159.0
177059.2582609226,-159.0
177059.26594380088,-157.0
177059.27362667918,-162.0
177059.28130955744,-188.0
177059.28899243573,-145.0
177059.29667531402,200.0
177059.30435819228,765.0
177059.31204107057,941.0
177059.31972394887,426.0
177059.32740682713,-159.0
177059.33508970542,-234.0
177059.3427725837,-154.0
177059.35045546197,-234.0
177059.35813834026,-266.0
177059.36582121855,-222.0
177059.37350409682,-232.0
177059.3811869751,-242.0
177059.3888698534,-222.0
177059.39655273166,-215.0
177059.40423560995,-215.0
177059.41191848824,-205.0
177059.4196013665,-198.0
177059.4272842448,-196.0
177059.4349671231,-188.0
177059.44265000135,-179.0
177059.45033287964,-174.0
177059.45801575793,-169.0
177059.4656986362,-157.0
177059.4733815145,-150.0
177059.48106439278,-142.0
177059.48874727107,-133.0
177059.49643014933,-121.0
177059.50411302762,-108.0
177059.5117959059,-99.0
177059.51947878418,-89.0
177059.52716166247,-79.0
177059.53484454076,-72.0
177059.54252741902,-70.0
177059.5502102973,-65.0
177059.5578931756,-62.0
177059.56557605386,-67.0
177059.57325893216,-72.0
177059.58094181045,-87.0
177059.5886246887,-111.0
177059.596307567,-140.0
177059.6039904453,-164.0
177059.61167332355,-179.0
177059.61935620185,-188.0
177059.62703908014,-200.0
177059.6347219584,-208.0
177059.6424048367,-205.0
177059.65008771498,-205.0
177059.65777059324,-205.0
177059.66545347153,-203.0
177059.67313634983,-200.0
177059.6808192281,-198.0
177059.68850210638,-196.0
177059.69618498467,-191.0
177059.70386786293,-188.0
177059.71155074122,-184.0
177059.71923361951,-181.0
177059.72691649778,-181.0
177059.73459937607,-176.0
177059.74228225436,-169.0
177059.74996513262,-164.0
177059.7576480109,-162.0
177059.7653308892,-159.0
177059.77301376747,-157.0
177059.78069664576,-157.0
177059.78837952405,-154.0
177059.79606240234,-152.0
177059.8037452806,-150.0
177059.8114281589,-150.0
177059.81911103718,-152.0
177059.82679391545,-150.0
177059.83447679374,-152.0
177059.84215967203,-152.0
177059.8498425503,-150.0
177059.85752542858,-150.0
177059.86520830687,-152.0
177059.87289118514,-152.0
177059.88057406343,-150.0
177059.88825694172,-147.0
177059.89593981998,-150.0
177059.90362269827,-147.0
177059.91130557656,-147.0
177059.91898845483,-145.0
177059.92667133312,-142.0
177059.9343542114,-142.0
177059.94203708967,-140.0
177059.94971996796,-140.0
177059.95740284625,-142.0
177059.9650857245,-142.0
177059.9727686028,-138.0
177059.9804514811,-138.0
177059.98813435936,-140.0
177059.99581723765,-138.0
177060.00350011594,-138.0
177060.0111829942,-138.0
177060.0188658725,-145.0
177060.0265487508,-152.0
177060.03423162905,-145.0
177060.04191450734,-123.0
177060.04959738563,-101.0
177060.0572802639,-96.0
177060.06496314218,-111.0
177060.07264602048,-130.0
177060.08032889874,-142.0
177060.08801177703,-150.0
177060.09569465532,-154.0
177060.10337753358,-157.0
177060.11106041187,-157.0
177060.11874329016,-157.0
177060.12642616846,-157.0
177060.13410904672,-157.0
177060.141791925,-154.0
177060.1494748033,-154.0
177060.15715768156,-157.0
177060.16484055985,-171.0
177060.17252343814,-184.0
177060.1802063164,12.0
177060.1878891947,537.0
177060.195572073,953.0
177060.20325495125,692.0
177060.21093782954,29.0
177060.21862070783,-249.0
177060.2263035861,-162.0
177060.2339864644,-188.0
177060.24166934268,-263.0
177060.24935222094,-232.0
177060.25703509923,-220.0
177060.26471797752,-239.0
177060.27240085579,-227.0
177060.28008373408,-210.0
177060.28776661237,-213.0
177060.29544949063,-205.0
177060.30313236892,-193.0
177060.3108152472,-191.0
177060.31849812547,-188.0
177060.32618100377,-181.0
177060.33386388206,-174.0
177060.34154676032,-169.0
177060.3492296386,-162.0
177060.3569125169,-157.0
177060.36459539516,-147.0
177060.37227827345,-138.0
177060.37996115175,-133.0
177060.38764403,-121.0
177060.3953269083,-108.0
177060.4030097866,-99.0
177060.41069266485,-89.0
177060.41837554314,-82.0
177060.42605842144,-75.0
177060.43374129973,-70.0
177060.441424178,-70.0
177060.44910705628,-70.0
177060.45678993457,-72.0
177060.46447281283,-79.0
177060.47215569112,-96.0
177060.47983856942,-116.0
177060.48752144768,-138.0
177060.49520432597,-159.0
177060.50288720426,-179.0
177060.51057008252,-188.0
177060.5182529608,-196.0
177060.5259358391,-198.0
177060.53361871737,-200.0
177060.54130159566,-198.0
177060.54898447395,-196.0
177060.5566673522,-196.0
177060.5643502305,-196.0
177060.5720331088,-193.0
177060.57971598706,-193.0
177060.58739886535,-191.0
177060.59508174364,-188.0
177060.6027646219,-191.0
177060.6104475002,-188.0
177060.61813037848,-184.0
177060.62581325675,-181.0
177060.63349613504,-176.0
177060.64117901333,-171.0
177060.6488618916,-171.0
177060.65654476988,-167.0
177060.66422764817,-162.0
177060.67191052643,-157.0
177060.67959340473,-154.0
177060.68727628302,-154.0
177060.69495916128,-157.0
177060.70264203957,-152.0
177060.71032491786,-152.0
177060.71800779612,-152.0
177060.72569067442,-152.0
177060.7333735527,-152.0
177060.74105643097,-154.0
177060.74873930926,-157.0
177060.75642218755,-152.0
177060.76410506584,-147.0
177060.7717879441,-147.0
177060.7794708224,-150.0
177060.7871537007,-150.0
177060.79483657895,-145.0
177060.80251945724,-142.0
177060.81020233553,-145.0
177060.8178852138,-150.0
177060.82556809208,-150.0
177060.83325097038,-150.0
177060.84093384864,-150.0
177060.84861672693,-150.0
177060.85629960522,-147.0
177060.86398248348,-147.0
177060.87166536177,-147.0
177060.87934824007,-147.0
177060.88703111833,-150.0
177060.89471399662,-152.0
177060.9023968749,-157.0
177060.91007975317,-162.0
177060.91776263146,-169.0
177060.92544550975,-164.0
177060.93312838802,-145.0
177060.9408112663,-121.0
177060.9484941446,-111.0
177060.95617702286,-123.0
177060.96385990115,-140.0
177060.97154277944,-152.0
177060.9792256577,-157.0
177060.986908536,-154.0
177060.9945914143,-154.0
177061.00227429255,-159.0
177061.00995717084,-162.0
177061.01764004913,-159.0
177061.0253229274,-159.0
177061.0330058057,-157.0
177061.04068868398,-154.0
177061.04837156224,-154.0
177061.05605444053,-162.0
177061.06373731882,-193.0
177061.0714201971,-108.0
177061.07910307538,312.0
177061.08678595367,837.0
177061.09446883196,794.0
177061.10215171022,159.0
177061.1098345885,-254.0
177061.1175174668,-191.0
177061.12520034506,-162.0
177061.13288322336,-256.0
177061.14056610165,-246.0
177061.1482489799,-210.0
177061.1559318582,-234.0
177061.1636147365,-232.0
177061.17129761475,-213.0
177061.17898049304,-205.0
177061.18666337134,-196.0
177061.1943462496,-186.0
177061.2020291279,-186.0
177061.20971200618,-179.0
177061.21739488444,-167.0
177061.22507776273,-159.0
177061.23276064103,-152.0
177061.2404435193,-142.0
177061.24812639758,-138.0
177061.25580927587,-128.0
177061.26349215413,-111.0
177061.27117503242,-104.0
177061.27885791071,-99.0
177061.28654078898,-87.0
177061.29422366727,-72.0
177061.30190654556,-62.0
177061.30958942382,-53.0
177061.3172723021,-46.0
177061.3249551804,-38.0
177061.33263805867,-36.0
177061.34032093696,-41.0
177061.34800381525,-43.0
177061.3556866935,-46.0
177061.3633695718,-58.0
177061.3710524501,-82.0
177061.37873532836,-108.0
177061.38641820665,-130.0
177061.39410108494,-145.0
177061.40178396323,-164.0
177061.4094668415,-176.0
177061.41714971978,-179.0
177061.42483259807,-184.0
177061.43251547634,-184.0
177061.44019835463,-181.0
177061.44788123292,-176.0
177061.45556411118,-169.0
177061.46324698947,-171.0
177061.47092986776,-176.0
177061.47861274602,-164.0
177061.48629562432,-154.0
177061.4939785026,-162.0
177061.50166138087,-164.0
177061.50934425916,-154.0
177061.51702713745,-147.0
177061.5247100157,-145.0
177061.532392894,-142.0
177061.5400757723,-140.0
177061.54775865056,-133.0
177061.55544152885,-125.0
177061.56312440714,-128.0
177061.5708072854,-128.0
177061.5784901637,-123.0
177061.586173042,-121.0
177061.59385592025,-125.0
177061.60153879854,-130.0
177061.60922167683,-130.0
177061.6169045551,-125.0
177061.62458743338,-123.0
177061.63227031167,-123.0
177061.63995318994,-121.0
177061.64763606823,-118.0
177061.65531894652,-121.0
177061.66300182478,-128.0
177061.67068470307,-135.0
177061.67836758136,-130.0
177061.68605045963,-118.0
177061.69373333792,-118.0
177061.7014162162,-121.0
177061.7090990945,-118.0
177061.71678197276,-118.0
177061.72446485105,-121.0
177061.73214772934,-121.0
177061.7398306076,-125.0
177061.7475134859,-125.0
177061.7551963642,-118.0
177061.76287924245,-113.0
177061.77056212074,-118.0
177061.77824499903,-123.0
177061.7859278773,-123.0
177061.7936107556,-116.0
177061.80129363388,-99.0
177061.80897651214,-79.0
177061.81665939043,-70.0
177061.82434226872,-82.0
177061.83202514698,-99.0
177061.83970802528,-108.0
177061.84739090357,-108.0
177061.85507378183,-108.0
177061.86275666012,-111.0
177061.8704395384,-113.0
177061.87812241667,-113.0
177061.88580529497,-113.0
177061.89348817326,-113.0
177061.90117105152,-111.0
177061.9088539298,-108.0
177061.9165368081,-108.0
177061.92421968636,-121.0
177061.93190256465,-140.0
177061.93958544295,29.0
177061.9472683212,535.0
177061.9549511995,905.0
177061.9626340778,527.0
177061.97031695605,-135.0
177061.97799983434,-246.0
177061.98568271264,-84.0
177061.9933655909,-145.0
177062.0010484692,-205.0
177062.00873134748,-154.0
177062.01641422574,-157.0
177062.02409710403,-181.0
177062.03177998232,-164.0
177062.03946286062,-154.0
177062.04714573888,-159.0
177062.05482861717,-152.0
177062.06251149546,-140.0
177062.07019437372,-140.0
177062.077877252,-135.0
177062.0855601303,-123.0
177062.09324300857,-116.0
177062.10092588686,-111.0
177062.10860876515,-99.0
177062.1162916434,-92.0
177062.1239745217,-87.0
177062.1316574,-82.0
177062.13934027826,-72.0
177062.14702315655,-60.0
177062.15470603484,-50.0
177062.1623889131,-43.0
177062.1700717914,-33.0
177062.17775466968,-26.0
177062.18543754795,-21.0
177062.19312042624,-19.0
177062.20080330453,-19.0
177062.2084861828,-21.0
177062.21616906108,-29.0
177062.22385193937,-41.0
177062.23153481763,-60.0
177062.23921769593,-92.0
177062.24690057422,-121.0
177062.25458345248,-135.0
177062.26226633077,-147.0
177062.26994920906,-167.0
177062.27763208732,-179.0
177062.28531496561,-181.0
177062.2929978439,-186.0
177062.30068072217,-191.0
177062.30836360046,-188.0
177062.31604647875,-184.0
177062.323729357,-179.0
177062.3314122353,-179.0
177062.3390951136,-176.0
177062.3467779919,-171.0
177062.35446087015,-171.0
177062.36214374844,-169.0
177062.36982662673,-159.0
177062.377509505,-152.0
177062.38519238328,-150.0
177062.39287526158,-150.0
177062.40055813984,-145.0
177062.40824101813,-140.0
177062.41592389642,-138.0
177062.42360677468,-135.0
177062.43128965297,-133.0
177062.43897253126,-130.0
177062.44665540953,-133.0
177062.45433828782,-133.0
177062.4620211661,-128.0
177062.46970404437,-130.0
177062.47738692266,-135.0
177062.48506980095,-138.0
177062.49275267922,-138.0
177062.5004355575,-138.0
177062.5081184358,-140.0
177062.51580131406,-140.0
177062.52348419235,-140.0
177062.53116707064,-142.0
177062.5388499489,-145.0
177062.5465328272,-152.0
177062.5542157055,-150.0
177062.56189858375,-145.0
177062.56958146204,-145.0
177062.57726434033,-147.0
177062.5849472186,-147.0
177062.5926300969,-147.0
177062.60031297518,-147.0
177062.60799585344,-147.0
177062.61567873173,-147.0
177062.62336161002,-145.0
177062.63104448828,-147.0
177062.63872736658,-150.0
177062.64641024487,-147.0
177062.65409312316,-145.0
177062.66177600142,-147.0
177062.6694588797,-154.0
177062.677141758,-157.0
177062.68482463626,-145.0
177062.69250751456,-125.0
177062.70019039285,-101.0
177062.7078732711,-94.0
177062.7155561494,-108.0
177062.7232390277,-125.0
177062.73092190595,-133.0
177062.73860478424,-138.0
177062.74628766254,-138.0
177062.7539705408,-138.0
177062.7616534191,-140.0
177062.76933629738,-140.0
177062.77701917564,-138.0
177062.78470205393,-140.0
177062.79238493223,-140.0
177062.8000678105,-135.0
177062.80775068878,-138.0
177062.81543356707,-159.0
177062.82311644533,-157.0
177062.83079932362,77.0
177062.8384822019,622.0
177062.84616508018,1004.0
177062.85384795847,687.0
177062.86153083676,7.0
177062.86921371502,-249.0
177062.8768965933,-147.0
177062.8845794716,-179.0
177062.89226234987,-251.0
177062.89994522816,-217.0
177062.90762810645,-208.0
177062.9153109847,-227.0
177062.922993863,-213.0
177062.9306767413,-198.0
177062.93835961955,-200.0
177062.94604249785,-193.0
177062.95372537614,-184.0
177062.9614082544,-184.0
177062.9690911327,-176.0
177062.97677401098,-164.0
177062.98445688927,-159.0
177062.99213976754,-154.0
177062.99982264583,-147.0
177063.00750552412,-140.0
177063.01518840238,-133.0
177063.02287128067,-123.0
177063.03055415896,-116.0
177063.03823703722,-111.0
177063.04591991552,-104.0
177063.0536027938,-92.0
177063.06128567207,-84.0
177063.06896855036,-77.0
177063.07665142865,-75.0
177063.0843343069,-77.0
177063.0920171852,-77.0
177063.0997000635,-75.0
177063.10738294176,-79.0
177063.11506582005,-87.0
177063.12274869834,-96.0
177063.1304315766,-116.0
177063.1381144549,-140.0
177063.14579733319,-162.0
177063.15348021145,-174.0
177063.16116308974,-181.0
177063.16884596803,-196.0
177063.1765288463,-203.0
177063.18421172458,-203.0
177063.19189460287,-200.0
177063.19957748114,-200.0
177063.20726035943,-198.0
177063.21494323772,-196.0
177063.22262611598,-193.0
177063.23030899427,-188.0
177063.23799187256,-186.0
177063.24567475083,-184.0
177063.25335762912,-181.0
177063.2610405074,-181.0
177063.26872338567,-176.0
177063.27640626396,-174.0
177063.28408914225,-176.0
177063.29177202054,-174.0
177063.2994548988,-167.0
177063.3071377771,-159.0
177063.3148206554,-162.0
177063.32250353365,-164.0
177063.33018641194,-164.0
177063.33786929023,-159.0
177063.3455521685,-159.0
177063.3532350468,-162.0
177063.36091792508,-164.0
177063.36860080334,-164.0
177063.37628368163,-167.0
177063.38396655992,-169.0
177063.39164943818,-169.0
177063.39933231648,-167.0
177063.40701519477,-169.0
177063.41469807303,-171.0
177063.42238095132,-171.0
177063.4300638296,-167.0
177063.43774670787,-164.0
177063.44542958617,-164.0
177063.45311246446,-167.0
177063.46079534272,-167.0
177063.468478221,-164.0
177063.4761610993,-164.0
177063.48384397756,-159.0
177063.49152685585,-159.0
177063.49920973415,-159.0
177063.5068926124,-159.0
177063.5145754907,-154.0
177063.522258369,-154.0
177063.52994124725,-159.0
177063.53762412554,-157.0
177063.54530700383,-154.0
177063.5529898821,-152.0
177063.5606727604,-157.0
177063.56835563868,-162.0
177063.57603851694,-164.0
177063.58372139523,-154.0
177063.59140427352,-135.0
177063.5990871518,-113.0
177063.60677003008,-101.0
177063.61445290837,-113.0
177063.62213578666,-133.0
177063.62981866492,-140.0
177063.6375015432,-142.0
177063.6451844215,-147.0
177063.65286729977,-152.0
177063.66055017806,-152.0
177063.66823305635,-147.0
177063.6759159346,-150.0
177063.6835988129,-154.0
177063.6912816912,-152.0
177063.69896456946,-147.0
177063.70664744775,-147.0
177063.71433032604,-171.0
177063.7220132043,-184.0
177063.7296960826,31.0
177063.73737896088,568.0
177063.74506183914,968.0
177063.75274471744,682.0
177063.76042759573,16.0
177063.768110474,-254.0
177063.77579335228,-164.0
177063.78347623057,-191.0
177063.79115910883,-261.0
177063.79884198713,-232.0
177063.80652486542,-222.0
177063.81420774368,-242.0
177063.82189062197,-230.0
177063.82957350026,-215.0
177063.83725637852,-213.0
177063.8449392568,-203.0
177063.8526221351,-196.0
177063.86030501337,-193.0
177063.86798789166,-188.0
177063.87567076995,-179.0
177063.8833536482,-174.0
177063.8910365265,-167.0
177063.8987194048,-157.0
177063.90640228306,-150.0
177063.91408516135,-142.0
177063.92176803964,-135.0
177063.92945091793,-125.0
177063.9371337962,-116.0
177063.94481667448,-104.0
177063.95249955278,-94.0
177063.96018243104,-92.0
177063.96786530933,-84.0
177063.97554818762,-77.0
177063.98323106588,-75.0
177063.99091394417,-72.0
177063.99859682246,-72.0
177064.00627970073,-77.0
177064.01396257902,-92.0
177064.0216454573,-104.0
177064.02932833557,-121.0
177064.03701121386,-140.0
177064.04469409215,-159.0
177064.05237697042,-174.0
177064.0600598487,-184.0
177064.067742727,-193.0
177064.07542560526,-200.0
177064.08310848355,-200.0
177064.09079136184,-196.0
177064.0984742401,-193.0
177064.1061571184,-196.0
177064.1138399967,-193.0
177064.12152287495,-186.0
177064.12920575324,-186.0
177064.13688863153,-186.0
177064.1445715098,-181.0
177064.1522543881,-184.0
177064.15993726638,-184.0
177064.16762014464,-181.0
177064.17530302293,-176.0
177064.18298590122,-171.0
177064.19066877948,-169.0
177064.19835165777,-169.0
177064.20603453607,-164.0
177064.21371741433,-164.0
177064.22140029262,-164.0
177064.2290831709,-162.0
177064.23676604917,-159.0
177064.24444892746,-162.0
177064.25213180576,-162.0
177064.25981468405,-164.0
177064.2674975623,-167.0
177064.2751804406,-169.0
177064.2828633189,-171.0
177064.29054619715,-171.0
177064.29822907544,-169.0
177064.30591195374,-169.0
177064.313594832,-174.0
177064.3212777103,-174.0
177064.32896058858,-169.0
177064.33664346684,-169.0
177064.34432634513,-169.0
177064.35200922342,-167.0
177064.3596921017,-164.0
177064.36737497998,-164.0
177064.37505785827,-164.0
177064.38274073653,-162.0
177064.39042361482,-159.0
177064.3981064931,-157.0
177064.40578937138,-157.0
177064.41347224967,-157.0
177064.42115512796,-154.0
177064.42883800622,-157.0
177064.4365208845,-157.0
177064.4442037628,-152.0
177064.45188664107,-152.0
177064.45956951936,-154.0
177064.46725239765,-162.0
177064.4749352759,-159.0
177064.4826181542,-145.0
177064.4903010325,-125.0
177064.49798391075,-106.0
177064.50566678905,-104.0
177064.51334966734,-125.0
177064.5210325456,-142.0
177064.5287154239,-147.0
177064.53639830218,-147.0
177064.54408118044,-142.0
177064.55176405873,-147.0
177064.55944693703,-150.0
177064.56712981532,-147.0
177064.57481269358,-142.0
177064.58249557187,-147.0
177064.59017845016,-152.0
177064.59786132842,-147.0
177064.60554420672,-145.0
177064.613227085,-171.0
177064.62090996327,-133.0
177064.62859284156,210.0
177064.63627571985,767.0
177064.6439585981,912.0
177064.6516414764,377.0
177064.6593243547,-174.0
177064.66700723296,-215.0
177064.67469011125,-145.0
177064.68237298954,-232.0
177064.6900558678,-249.0
177064.6977387461,-203.0
177064.70542162439,-222.0
177064.71310450265,-232.0
177064.72078738094,-205.0
177064.72847025923,-200.0
177064.7361531375,-203.0
177064.74383601578,-191.0
177064.75151889407,-188.0
177064.75920177234,-188.0
177064.76688465063,-179.0
177064.77456752892,-167.0
177064.78225040718,-164.0
177064.78993328547,-157.0
177064.79761616376,-145.0
177064.80529904203,-133.0
177064.81298192032,-123.0
177064.8206647986,-116.0
177064.82834767687,-106.0
177064.83603055516,-94.0
177064.84371343345,-82.0
177064.85139631171,-79.0
177064.85907919,-77.0
177064.8667620683,-72.0
177064.87444494656,-67.0
177064.88212782485,-60.0
177064.88981070314,-53.0
177064.89749358143,-55.0
177064.9051764597,-65.0
177064.912859338,-75.0
177064.92054221628,-89.0
177064.92822509454,-113.0
177064.93590797283,-138.0
177064.94359085112,-154.0
177064.95127372938,-167.0
177064.95895660768,-181.0
177064.96663948597,-191.0
177064.97432236423,-191.0
177064.98200524252,-188.0
177064.9896881208,-188.0
177064.99737099907,-188.0
177065.00505387736,-188.0
177065.01273675566,-184.0
177065.02041963392,-174.0
177065.0281025122,-174.0
177065.0357853905,-179.0
177065.04346826876,-176.0
177065.05115114705,-171.0
177065.05883402535,-169.0
177065.0665169036,-162.0
177065.0741997819,-154.0
177065.0818826602,-157.0
177065.08956553845,-159.0
177065.09724841674,-152.0
177065.10493129503,-140.0
177065.1126141733,-142.0
177065.1202970516,-152.0
177065.12797992988,-150.0
177065.13566280814,-145.0
177065.14334568643,-150.0
177065.15102856472,-152.0
177065.158711443,-150.0
177065.16639432128,-152.0
177065.17407719957,-162.0
177065.18176007783,-167.0
177065.18944295612,-162.0
177065.1971258344,-154.0
177065.2048087127,-152.0
177065.21249159097,-159.0
177065.22017446926,-159.0
177065.22785734755,-157.0
177065.2355402258,-159.0
177065.2432231041,-154.0
177065.2509059824,-147.0
177065.25858886066,-147.0
177065.26627173895,-152.0
177065.27395461724,-154.0
177065.2816374955,-152.0
177065.2893203738,-142.0
177065.29700325208,-140.0
177065.30468613034,-152.0
177065.31236900864,-154.0
177065.32005188693,-145.0
177065.3277347652,-133.0
177065.33541764348,-118.0
177065.34310052177,-99.0
177065.35078340003,-96.0
177065.35846627833,-116.0
177065.36614915662,-130.0
177065.37383203488,-135.0
177065.38151491317,-133.0
177065.38919779146,-128.0
177065.39688066972,-133.0
177065.404563548,-135.0
177065.4122464263,-133.0
177065.41992930457,-133.0
177065.42761218286,-135.0
177065.43529506115,-130.0
177065.4429779394,-128.0
177065.4506608177,-138.0
177065.458343696,-159.0
177065.46602657426,-133.0
177065.47370945255,142.0
177065.48139233084,668.0
177065.4890752091,825.0
177065.4967580874,244.0
177065.50444096568,-288.0
177065.51212384395,-217.0
177065.51980672224,-106.0
177065.52748960053,-205.0
177065.53517247882,-213.0
177065.54285535708,-167.0
177065.55053823537,-188.0
177065.55822111366,-196.0
177065.56590399193,-174.0
177065.57358687022,-169.0
177065.5812697485,-174.0
177065.58895262677,-164.0
177065.59663550506,-154.0
177065.60431838335,-145.0
177065.61200126162,-140.0
177065.6196841399,-133.0
177065.6273670182,-128.0
177065.63504989646,-121.0
177065.64273277475,-113.0
177065.65041565304,-99.0
177065.6580985313,-89.0
177065.6657814096,-82.0
177065.6734642879,-77.0
177065.68114716615,-70.0
177065.68883004444,-62.0
177065.69651292273,-50.0
177065.704195801,-38.0
177065.71187867929,-33.0
177065.71956155758,-31.0
177065.72724443584,-26.0
177065.73492731413,-24.0
177065.74261019242,-29.0
177065.75029307068,-46.0
177065.75797594897,-60.0
177065.76565882727,-79.0
177065.77334170553,-106.0
177065.78102458382,-135.0
177065.7887074621,-159.0
177065.79639034037,-181.0
177065.80407321866,-191.0
177065.81175609695,-200.0
177065.81943897522,-205.0
177065.8271218535,-205.0
177065.8348047318,-205.0
177065.8424876101,-205.0
177065.85017048835,-200.0
177065.85785336664,-196.0
177065.86553624494,-193.0
177065.8732191232,-188.0
177065.8809020015,-186.0
177065.88858487978,-179.0
177065.89626775804,-169.0
177065.90395063633,-167.0
177065.91163351462,-167.0
177065.9193163929,-157.0
177065.92699927118,-150.0
177065.93468214947,-147.0
177065.94236502773,-145.0
177065.95004790602,-142.0
177065.9577307843,-142.0
177065.96541366258,-145.0
177065.97309654087,-147.0
177065.98077941916,-147.0
177065.98846229742,-147.0
177065.9961451757,-150.0
177066.003828054,-147.0
177066.01151093227,-147.0
177066.01919381056,-152.0
177066.02687668885,-152.0
177066.0345595671,-152.0
177066.0422424454,-152.0
177066.0499253237,-150.0
177066.05760820195,-147.0
177066.06529108025,-145.0
177066.07297395854,-142.0
177066.0806568368,-140.0
177066.0883397151,-140.0
177066.09602259338,-140.0
177066.10370547164,-135.0
177066.11138834993,-135.0
177066.11907122823,-135.0
177066.1267541065,-133.0
177066.13443698478,-130.0
177066.14211986307,-130.0
177066.14980274133,-133.0
177066.15748561962,-135.0
177066.16516849792,-130.0
177066.1728513762,-121.0
177066.18053425447,-99.0
177066.18821713276,-77.0
177066.19590001105,-77.0
177066.2035828893,-96.0
177066.2112657676,-108.0
177066.2189486459,-113.0
177066.22663152416,-113.0
177066.23431440245,-111.0
177066.24199728074,-111.0
177066.249680159,-108.0
177066.2573630373,-106.0
177066.26504591558,-111.0
177066.27272879385,-106.0
177066.28041167214,-99.0
177066.28809455043,-101.0
177066.2957774287,-108.0
177066.30346030698,-130.0
177066.31114318527,-55.0
177066.31882606354,338.0
177066.32650894183,874.0
177066.33419182012,903.0
177066.34187469838,300.0
177066.34955757667,-176.0
177066.35724045496,-150.0
177066.36492333323,-94.0
177066.37260621152,-184.0
177066.3802890898,-186.0
177066.38797196807,-152.0
177066.39565484636,-171.0
177066.40333772465,-174.0
177066.4110206029,-154.0
177066.4187034812,-152.0
177066.4263863595,-147.0
177066.43406923776,-135.0
177066.44175211605,-130.0
177066.44943499434,-128.0
177066.4571178726,-121.0
177066.4648007509,-113.0
177066.4724836292,-108.0
177066.48016650748,-104.0
177066.48784938574,-99.0
177066.49553226403,-92.0
177066.50321514232,-84.0
177066.51089802058,-77.0
177066.51858089888,-67.0
177066.52626377717,-58.0
177066.53394665543,-50.0
177066.54162953372,-41.0
177066.549312412,-31.0
177066.55699529027,-29.0
177066.56467816856,-29.0
177066.57236104686,-26.0
177066.58004392512,-24.0
177066.5877268034,-29.0
177066.5954096817,-36.0
177066.60309255996,-46.0
177066.61077543825,-62.0
177066.61845831655,-84.0
177066.6261411948,-104.0
177066.6338240731,-118.0
177066.6415069514,-133.0
177066.64918982965,-145.0
177066.65687270794,-150.0
177066.66455558623,-154.0
177066.6722384645,-154.0
177066.6799213428,-157.0
177066.68760422108,-159.0
177066.69528709934,-157.0
177066.70296997763,-152.0
177066.71065285592,-152.0
177066.7183357342,-150.0
177066.72601861248,-150.0
177066.73370149077,-150.0
177066.74138436903,-145.0
177066.74906724732,-140.0
177066.7567501256,-140.0
177066.76443300387,-138.0
177066.77211588217,-133.0
177066.77979876046,-133.0
177066.78748163875,-128.0
177066.795164517,-125.0
177066.8028473953,-123.0
177066.8105302736,-123.0
177066.81821315186,-121.0
177066.82589603015,-123.0
177066.83357890844,-123.0
177066.8412617867,-121.0
177066.848944665,-121.0
177066.85662754328,-125.0
177066.86431042154,-128.0
177066.87199329984,-128.0
177066.87967617813,-125.0
177066.8873590564,-130.0
177066.89504193468,-133.0
177066.90272481297,-130.0
177066.91040769123,-133.0
177066.91809056952,-138.0
177066.92577344782,-140.0
177066.93345632608,-138.0
177066.94113920437,-138.0
177066.94882208266,-142.0
177066.95650496092,-142.0
177066.9641878392,-142.0
177066.9718707175,-145.0
177066.97955359577,-150.0
177066.98723647406,-152.0
177066.99491935235,-159.0
177067.0026022306,-162.0
177067.0102851089,-152.0
177067.0179679872,-133.0
177067.02565086546,-106.0
177067.03333374375,-101.0
177067.04101662204,-121.0
177067.0486995003,-138.0
177067.0563823786,-142.0
177067.06406525688,-147.0
177067.07174813515,-150.0
177067.07943101344,-152.0
177067.08711389173,-152.0
177067.09479677,-154.0
177067.10247964828,-157.0
177067.11016252657,-162.0
177067.11784540486,-157.0
177067.12552828313,-152.0
177067.13321116142,-157.0
177067.1408940397,-181.0
177067.14857691797,-169.0
177067.15625979626,94.0
177067.16394267455,636.0
177067.17162555282,920.0
177067.1793084311,508.0
177067.1869913094,-111.0
177067.19467418766,-254.0
177067.20235706595,-154.0
177067.21003994424,-213.0
177067.2177228225,-263.0
177067.2254057008,-225.0
177067.2330885791,-227.0
177067.24077145735,-244.0
177067.24845433564,-225.0
177067.25613721393,-213.0
177067.2638200922,-215.0
177067.27150297049,-205.0
177067.27918584878,-198.0
177067.28686872704,-196.0
177067.29455160533,-188.0
177067.30223448362,-176.0
177067.30991736188,-169.0
177067.31760024017,-162.0
177067.32528311847,-154.0
177067.33296599673,-147.0
177067.34064887502,-140.0
177067.3483317533,-130.0
177067.35601463157,-118.0
177067.36369750986,-106.0
177067.37138038815,-99.0
177067.37906326642,-92.0
177067.3867461447,-82.0
177067.394429023,-75.0
177067.40211190126,-70.0
177067.40979477955,-70.0
177067.41747765784,-70.0
177067.42516053614,-72.0
177067.4328434144,-77.0
177067.4405262927,-87.0
177067.44820917098,-104.0
177067.45589204924,-125.0
177067.46357492753,-150.0
177067.47125780582,-171.0
177067.4789406841,-188.0
177067.48662356238,-196.0
177067.49430644067,-200.0
177067.50198931893,-203.0
177067.50967219722,-203.0
177067.5173550755,-203.0
177067.52503795378,-200.0
177067.53272083207,-198.0
177067.54040371036,-196.0
177067.54808658862,-193.0
177067.5557694669,-193.0
177067.5634523452,-191.0
177067.57113522346,-188.0
177067.57881810176,-186.0
177067.58650098005,-181.0
177067.5941838583,-174.0
177067.6018667366,-171.0
177067.6095496149,-169.0
177067.61723249315,-162.0
177067.62491537145,-159.0
177067.63259824974,-157.0
177067.640281128,-154.0
177067.6479640063,-152.0
177067.65564688458,-152.0
177067.66332976284,-152.0
177067.67101264113,-154.0
177067.67869551943,-157.0
177067.6863783977,-157.0
177067.69406127598,-164.0
177067.70174415427,-169.0
177067.70942703253,-169.0
177067.71710991082,-167.0
177067.72479278911,-167.0
177067.73247566738,-167.0
177067.74015854567,-164.0
177067.74784142396,-162.0
177067.75552430225,-162.0
177067.7632071805,-159.0
177067.7708900588,-157.0
177067.7785729371,-157.0
177067.78625581536,-157.0
177067.79393869365,-152.0
177067.80162157194,-152.0
177067.8093044502,-152.0
177067.8169873285,-154.0
177067.82467020678,-162.0
177067.83235308505,-169.0
177067.84003596334,-162.0
177067.84771884163,-140.0
177067.8554017199,-121.0
177067.86308459818,-104.0
177067.87076747647,-111.0
177067.87845035474,-130.0
177067.88613323303,-140.0
177067.89381611132,-142.0
177067.90149898958,-142.0
177067.90918186787,-140.0
177067.91686474616,-142.0
177067.92454762443,-140.0
177067.93223050272,-140.0
177067.939913381,-140.0
177067.94759625927,-138.0
177067.95527913756,-135.0
177067.96296201585,-138.0
177067.9706448941,-147.0
177067.9783277724,-169.0
177067.9860106507,-43.0
177067.99369352896,416.0
177068.00137640725,890.0
177068.00905928554,757.0
177068.0167421638,123.0
177068.0244250421,-225.0
177068.0321079204,-152.0
177068.03979079865,-147.0
177068.04747367694,-232.0
177068.05515655523,-213.0
177068.06283943352,-191.0
177068.07052231178,-210.0
177068.07820519008,-203.0
177068.08588806837,-184.0
177068.09357094663,-186.0
177068.10125382492,-176.0
177068.1089367032,-167.0
177068.11661958147,-167.0
177068.12430245976,-159.0
177068.13198533806,-147.0
177068.13966821632,-142.0
177068.1473510946,-140.0
177068.1550339729,-130.0
177068.16271685116,-121.0
177068.17039972945,-111.0
177068.17808260774,-104.0
177068.185765486,-94.0
177068.1934483643,-87.0
177068.2011312426,-82.0
177068.20881412085,-77.0
177068.21649699914,-70.0
177068.22417987743,-62.0
177068.2318627557,-53.0
177068.239545634,-48.0
177068.24722851228,-50.0
177068.25491139054,-50.0
177068.26259426883,-53.0
177068.27027714712,-62.0
177068.27796002539,-79.0
177068.28564290368,-99.0
177068.29332578197,-123.0
177068.30100866023,-147.0
177068.30869153852,-162.0
177068.3163744168,-171.0
177068.32405729507,-179.0
177068.33174017337,-184.0
177068.33942305166,-181.0
177068.34710592992,-179.0
177068.3547888082,-179.0
177068.3624716865,-176.0
177068.37015456476,-171.0
177068.37783744305,-169.0
177068.38552032135,-169.0
177068.39320319964,-167.0
177068.4008860779,-159.0
177068.4085689562,-152.0
177068.41625183448,-150.0
177068.42393471274,-150.0
177068.43161759104,-147.0
177068.43930046933,-142.0
177068.4469833476,-135.0
177068.45466622588,-133.0
177068.46234910417,-133.0
177068.47003198243,-125.0
177068.47771486072,-125.0
177068.48539773902,-130.0
177068.49308061728,-125.0
177068.50076349557,-121.0
177068.50844637386,-123.0
177068.51612925212,-125.0
177068.5238121304,-123.0
177068.5314950087,-125.0
177068.53917788697,-125.0
177068.54686076526,-121.0
177068.55454364355,-118.0
177068.5622265218,-123.0
177068.5699094001,-123.0
177068.5775922784,-121.0
177068.58527515666,-121.0
177068.59295803495,-121.0
177068.60064091324,-118.0
177068.6083237915,-116.0
177068.6160066698,-118.0
177068.62368954808,-121.0
177068.63137242635,-121.0
177068.63905530464,-116.0
177068.64673818293,-118.0
177068.6544210612,-130.0
177068.66210393948,-133.0
177068.66978681777,-118.0
177068.67746969603,-101.0
177068.68515257433,-84.0
177068.69283545262,-79.0
177068.7005183309,-96.0
177068.70820120917,-118.0
177068.71588408746,-133.0
177068.72356696575,-138.0
177068.73124984402,-130.0
177068.7389327223,-130.0
177068.7466156006,-138.0
177068.75429847886,-138.0
177068.76198135715,-138.0
177068.76966423544,-138.0
177068.7773471137,-135.0
177068.785029992,-142.0
177068.7927128703,-147.0
177068.80039574855,-154.0
177068.80807862684,-147.0
177068.81576150513,79.0
177068.8234443834,602.0
177068.83112726168,888.0
177068.83881013998,464.0
177068.84649301824,-135.0
177068.85417589653,-232.0
177068.86185877482,-121.0
177068.86954165308,-186.0
177068.87722453137,-227.0
177068.88490740967,-181.0
177068.89259028793,-193.0
177068.90027316622,-213.0
177068.9079560445,-191.0
177068.91563892277,-176.0
177068.92332180106,-174.0
177068.93100467935,-169.0
177068.93868755762,-162.0
177068.9463704359,-159.0
177068.9540533142,-152.0
177068.96173619246,-142.0
177068.96941907075,-135.0
177068.97710194904,-130.0
177068.9847848273,-123.0
177068.9924677056,-111.0
177069.0001505839,-101.0
177069.00783346215,-92.0
177069.01551634044,-79.0
177069.02319921873,-70.0
177069.03088209702,-58.0
177069.0385649753,-46.0
177069.04624785358,-43.0
177069.05393073187,-36.0
177069.06161361013,-24.0
177069.06929648842,-14.0
177069.0769793667,-16.0
177069.08466224498,-24.0
177069.09234512327,-29.0
177069.10002800156,-41.0
177069.10771087982,-70.0
177069.1153937581,-99.0
177069.1230766364,-121.0
177069.13075951466,-145.0
177069.13844239296,-164.0
177069.14612527125,-169.0
177069.1538081495,-174.0
177069.1614910278,-184.0
177069.1691739061,-186.0
177069.17685678435,-186.0
177069.18453966264,-191.0
177069.19222254094,-193.0
177069.1999054192,-186.0
177069.2075882975,-181.0
177069.21527117578,-188.0
177069.22295405404,-184.0
177069.23063693233,-176.0
177069.23831981063,-176.0
177069.2460026889,-169.0
177069.25368556718,-157.0
177069.26136844547,-159.0
177069.26905132373,-164.0
177069.27673420202,-152.0
177069.28441708031,-145.0
177069.29209995858,-147.0
177069.29978283687,-145.0
177069.30746571516,-138.0
177069.31514859342,-138.0
177069.3228314717,-145.0
177069.33051435,-152.0
177069.3381972283,-147.0
177069.34588010656,-138.0
177069.35356298485,-138.0
177069.36124586314,-142.0
177069.3689287414,-142.0
177069.3766116197,-145.0
177069.38429449798,-145.0
177069.39197737625,-145.0
177069.39966025454,-142.0
177069.40734313283,-145.0
177069.4150260111,-140.0
177069.42270888938,-128.0
177069.43039176767,-133.0
177069.43807464594,-145.0
177069.44575752423,-145.0
177069.45344040252,-147.0
177069.46112328078,-147.0
177069.46880615907,-145.0
177069.47648903736,-138.0
177069.48417191562,-123.0
177069.49185479392,-96.0
177069.4995376722,-84.0
177069.50722055047,-101.0
177069.51490342876,-123.0
177069.52258630705,-130.0
177069.5302691853,-133.0
177069.5379520636,-135.0
177069.5456349419,-140.0
177069.55331782016,-142.0
177069.56100069845,-140.0
177069.56868357674,-142.0
177069.576366455,-142.0
177069.5840493333,-142.0
177069.5917322116,-145.0
177069.59941508985,-142.0
177069.60709796814,-150.0
177069.61478084643,-162.0
177069.6224637247,16.0
177069.63014660298,518.0
177069.63782948127,854.0
177069.64551235954,438.0
177069.65319523783,-205.0
177069.66087811612,-268.0
177069.6685609944,-108.0
177069.67624387267,-191.0
177069.68392675096,-242.0
177069.69160962926,-184.0
177069.69929250752,-188.0
177069.7069753858,-213.0
177069.7146582641,-193.0
177069.72234114236,-184.0
177069.73002402065,-191.0
177069.73770689894,-181.0
177069.7453897772,-169.0
177069.7530726555,-164.0
177069.7607555338,-157.0
177069.76843841205,-150.0
177069.77612129034,-145.0
177069.78380416863,-135.0
177069.7914870469,-125.0
177069.7991699252,-118.0
177069.80685280348,-108.0
177069.81453568174,-99.0
177069.82221856003,-89.0
177069.82990143832,-79.0
177069.83758431658,-65.0
177069.84526719488,-53.0
177069.85295007317,-43.0
177069.86063295143,-41.0
177069.86831582972,-38.0
177069.875998708,-33.0
177069.88368158627,-33.0
177069.89136446457,-38.0
177069.89904734286,-46.0
177069.90673022112,-60.0
177069.9144130994,-87.0
177069.9220959777,-118.0
177069.92977885596,-150.0
177069.93746173425,-176.0
177069.94514461255,-193.0
177069.9528274908,-205.0
177069.9605103691,-215.0
177069.9681932474,-220.0
177069.97587612568,-220.0
177069.98355900394,-217.0
177069.99124188224,-215.0
177069.99892476053,-213.0
177070.0066076388,-213.0
177070.01429051708,-210.0
177070.02197339537,-205.0
177070.02965627363,-200.0
177070.03733915192,-198.0
177070.04502203022,-196.0
177070.05270490848,-188.0
177070.06038778677,-181.0
177070.06807066506,-179.0
177070.07575354332,-176.0
177070.0834364216,-169.0
177070.0911192999,-164.0
177070.09880217817,-164.0
177070.10648505646,-164.0
177070.11416793475,-159.0
177070.121850813,-157.0
177070.1295336913,-159.0
177070.1372165696,-162.0
177070.14489944786,-162.0
177070.15258232615,-159.0
177070.16026520444,-159.0
177070.1679480827,-159.0
177070.175630961,-162.0
177070.18331383928,-167.0
177070.19099671755,-167.0
177070.19867959584,-164.0
177070.20636247413,-162.0
177070.2140453524,-162.0
177070.22172823068,-164.0
177070.22941110897,-167.0
177070.23709398723,-164.0
177070.24477686553,-162.0
177070.25245974382,-159.0
177070.26014262208,-159.0
177070.26782550037,-157.0
177070.27550837866,-157.0
177070.28319125692,-164.0
177070.29087413521,-171.0
177070.2985570135,-167.0
177070.3062398918,-152.0
177070.31392277006,-128.0
177070.32160564835,-108.0
177070.32928852664,-113.0
177070.3369714049,-135.0
177070.3446542832,-145.0
177070.3523371615,-150.0
177070.36002003975,-150.0
177070.36770291804,-150.0
177070.37538579633,-152.0
177070.3830686746,-154.0
177070.39075155288,-154.0
177070.39843443118,-154.0
177070.40611730944,-154.0
177070.41380018773,-154.0
177070.42148306602,-154.0
177070.42916594428,-167.0
177070.43684882257,-196.0
177070.44453170086,-111.0
177070.45221457913,302.0
177070.45989745742,840.0
177070.4675803357,866.0
177070.47526321397,261.0
177070.48294609226,-230.0
177070.49062897055,-217.0
177070.49831184882,-159.0
177070.5059947271,-246.0
177070.5136776054,-254.0
177070.52136048366,-217.0
177070.52904336195,-232.0
177070.53672624024,-234.0
177070.5444091185,-213.0
177070.5520919968,-208.0
177070.5597748751,-208.0
177070.56745775335,-198.0
177070.57514063164,-188.0
177070.58282350993,-184.0
177070.5905063882,-176.0
177070.5981892665,-169.0
177070.60587214478,-162.0
177070.61355502307,-154.0
177070.62123790133,-145.0
177070.62892077962,-135.0
177070.6366036579,-128.0
177070.64428653618,-118.0
177070.65196941447,-106.0
177070.65965229276,-96.0
177070.66733517102,-89.0
177070.6750180493,-79.0
177070.6827009276,-67.0
177070.69038380586,-58.0
177070.69806668416,-58.0
177070.70574956245,-58.0
177070.7134324407,-58.0
177070.721115319,-62.0
177070.7287981973,-72.0
177070.73648107555,-87.0
177070.74416395384,-104.0
177070.75184683214,-128.0
177070.7595297104,-147.0
177070.7672125887,-167.0
177070.77489546698,-176.0
177070.78257834524,-184.0
177070.79026122353,-191.0
177070.79794410183,-193.0
177070.8056269801,-191.0
177070.81330985838,-188.0
177070.82099273667,-186.0
177070.82867561493,-184.0
177070.83635849322,-181.0
177070.8440413715,-179.0
177070.85172424978,-179.0
177070.85940712807,-174.0
177070.86709000636,-171.0
177070.87477288462,-169.0
177070.8824557629,-164.0
177070.8901386412,-159.0
177070.89782151947,-157.0
177070.90550439776,-152.0
177070.91318727605,-150.0
177070.92087015434,-147.0
177070.9285530326,-145.0
177070.9362359109,-140.0
177070.94391878918,-138.0
177070.95160166745,-135.0
177070.95928454574,-135.0
177070.96696742403,-135.0
177070.9746503023,-138.0
177070.98233318058,-135.0
177070.99001605887,-135.0
177070.99769893714,-133.0
177071.00538181543,-135.0
177071.01306469372,-135.0
177071.02074757198,-135.0
177071.02843045027,-138.0
177071.03611332856,-140.0
177071.04379620682,-140.0
177071.05147908512,-138.0
177071.0591619634,-138.0
177071.06684484167,-138.0
177071.07452771996,-135.0
177071.08221059825,-133.0
177071.0898934765,-133.0
177071.0975763548,-133.0
177071.1052592331,-133.0
177071.11294211136,-135.0
177071.12062498965,-142.0
177071.12830786794,-147.0
177071.1359907462,-138.0
177071.1436736245,-116.0
177071.15135650279,-92.0
177071.15903938105,-87.0
177071.16672225934,-104.0
177071.17440513763,-118.0
177071.1820880159,-128.0
177071.18977089418,-138.0
177071.19745377247,-135.0
177071.20513665074,-135.0
177071.21281952903,-138.0
177071.22050240732,-140.0
177071.22818528558,-145.0
177071.23586816387,-150.0
177071.24355104216,-152.0
177071.25123392045,-150.0
177071.25891679872,-150.0
177071.266599677,-167.0
177071.2742825553,-179.0
177071.28196543356,21.0
177071.28964831185,542.0
177071.29733119014,946.0
177071.3050140684,680.0
177071.3126969467,24.0
177071.320379825,-251.0
177071.32806270325,-164.0
177071.33574558154,-191.0
177071.34342845983,-261.0
177071.3511113381,-230.0
177071.3587942164,-217.0
177071.36647709468,-239.0
177071.37415997294,-230.0
177071.38184285123,-215.0
177071.38952572952,-213.0
177071.39720860778,-205.0
177071.40489148608,-196.0
177071.41257436437,-196.0
177071.42025724263,-188.0
177071.42794012092,-179.0
177071.4356229992,-171.0
177071.44330587747,-167.0
177071.45098875577,-159.0
177071.45867163406,-150.0
177071.46635451232,-138.0
177071.4740373906,-130.0
177071.4817202689,-121.0
177071.48940314716,-106.0
177071.49708602545,-94.0
177071.50476890375,-87.0
177071.512451782,-77.0
177071.5201346603,-65.0
177071.5278175386,-60.0
177071.53550041685,-58.0
177071.54318329514,-55.0
177071.55086617343,-58.0
177071.55854905173,-60.0
177071.56623193,-72.0
177071.57391480828,-96.0
177071.58159768657,-118.0
177071.58928056483,-140.0
177071.59696344312,-159.0
177071.60464632142,-176.0
177071.61232919968,-186.0
177071.62001207797,-196.0
177071.62769495626,-198.0
177071.63537783452,-196.0
177071.6430607128,-196.0
177071.6507435911,-196.0
177071.65842646937,-196.0
177071.66610934766,-193.0
177071.67379222595,-188.0
177071.6814751042,-186.0
177071.6891579825,-186.0
177071.6968408608,-181.0
177071.70452373906,-176.0
177071.71220661735,-174.0
177071.71988949564,-171.0
177071.7275723739,-167.0
177071.7352552522,-169.0
177071.74293813048,-169.0
177071.75062100874,-164.0
177071.75830388704,-162.0
177071.76598676533,-157.0
177071.7736696436,-154.0
177071.78135252188,-152.0
177071.78903540017,-150.0
177071.79671827843,-150.0
177071.80440115673,-150.0
177071.81208403502,-147.0
177071.81976691328,-147.0
177071.82744979157,-147.0
177071.83513266986,-145.0
177071.84281554812,-147.0
177071.85049842641,-147.0
177071.8581813047,-145.0
177071.86586418297,-145.0
177071.87354706126,-145.0
177071.88122993955,-142.0
177071.88891281784,-140.0
177071.8965956961,-145.0
177071.9042785744,-145.0
177071.9119614527,-142.0
177071.91964433095,-140.0
177071.92732720924,-140.0
177071.93501008753,-140.0
177071.9426929658,-138.0
177071.95037584408,-138.0
177071.95805872238,-138.0
177071.96574160064,-140.0
177071.97342447893,-142.0
177071.98110735722,-145.0
177071.98879023548,-140.0
177071.99647311377,-123.0
177072.00415599206,-99.0
177072.01183887033,-89.0
177072.01952174862,-104.0
177072.0272046269,-123.0
177072.03488750517,-130.0
177072.04257038346,-135.0
177072.05025326175,-138.0
177072.05793614002,-138.0
177072.0656190183,-140.0
177072.0733018966,-142.0
177072.08098477486,-145.0
177072.08866765315,-147.0
177072.09635053144,-145.0
177072.1040334097,-142.0
177072.111716288,-145.0
177072.1193991663,-162.0
177072.12708204455,-179.0
177072.13476492284,-14.0
177072.14244780113,481.0
177072.1501306794,920.0
177072.1578135577,714.0
177072.16549643598,67.0
177072.17317931424,-246.0
177072.18086219253,-169.0
177072.18854507082,-179.0
177072.1962279491,-256.0
177072.20391082737,-232.0
177072.21159370567,-215.0
177072.21927658396,-237.0
177072.22695946222,-225.0
177072.2346423405,-208.0
177072.2423252188,-213.0
177072.25000809706,-210.0
177072.25769097536,-198.0
177072.26537385365,-193.0
177072.2730567319,-188.0
177072.2807396102,-179.0
177072.2884224885,-171.0
177072.29610536675,-164.0
177072.30378824504,-157.0
177072.31147112334,-145.0
177072.3191540016,-135.0
177072.3268368799,-130.0
177072.33451975818,-121.0
177072.34220263644,-108.0
177072.34988551473,-99.0
177072.35756839302,-87.0
177072.3652512713,-77.0
177072.37293414958,-70.0
177072.38061702787,-65.0
177072.38829990613,-60.0
177072.39598278442,-60.0
177072.4036656627,-60.0
177072.41134854098,-65.0
177072.41903141927,-75.0
177072.42671429756,-89.0
177072.43439717582,-108.0
177072.4420800541,-133.0
177072.4497629324,-159.0
177072.45744581067,-176.0
177072.46512868896,-184.0
177072.47281156725,-191.0
177072.4804944455,-196.0
177072.4881773238,-196.0
177072.4958602021,-193.0
177072.50354308035,-191.0
177072.51122595865,-186.0
177072.51890883694,-181.0
177072.52659171523,-179.0
177072.5342745935,-181.0
177072.54195747178,-179.0
177072.54964035007,-174.0
177072.55732322834,-171.0
177072.56500610663,-167.0
177072.57268898492,-162.0
177072.58037186318,-157.0
177072.58805474147,-154.0
177072.59573761976,-152.0
177072.60342049802,-150.0
177072.61110337632,-147.0
177072.6187862546,-140.0
177072.62646913287,-135.0
177072.63415201116,-140.0
177072.64183488945,-145.0
177072.6495177677,-142.0
177072.657200646,-138.0
177072.6648835243,-135.0
177072.67256640256,-140.0
177072.68024928085,-140.0
177072.68793215914,-138.0
177072.6956150374,-138.0
177072.7032979157,-140.0
177072.71098079399,-140.0
177072.71866367225,-133.0
177072.72634655054,-133.0
177072.73402942883,-135.0
177072.7417123071,-135.0
177072.74939518538,-140.0
177072.75707806367,-142.0
177072.76476094194,-135.0
177072.77244382023,-133.0
177072.78012669852,-135.0
177072.78780957678,-130.0
177072.79549245507,-125.0
177072.80317533336,-133.0
177072.81085821163,-138.0
177072.81854108992,-133.0
177072.8262239682,-138.0
177072.8339068465,-147.0
177072.84158972476,-140.0
177072.84927260305,-118.0
177072.85695548134,-99.0
177072.8646383596,-84.0
177072.8723212379,-89.0
177072.8800041162,-111.0
177072.88768699445,-130.0
177072.89536987274,-133.0
177072.90305275103,-133.0
177072.9107356293,-135.0
177072.9184185076,-138.0
177072.92610138588,-135.0
177072.93378426414,-133.0
177072.94146714243,-133.0
177072.94915002072,-135.0
177072.95683289898,-138.0
177072.96451577728,-130.0
177072.97219865557,-133.0
177072.97988153383,-159.0
177072.98756441212,-65.0
177072.9952472904,363.0
177073.00293016867,857.0
177073.01061304696,738.0
177073.01829592526,87.0
177073.02597880352,-249.0
177073.0336616818,-145.0
177073.0413445601,-135.0
177073.04902743836,-220.0
177073.05671031665,-193.0
177073.06439319495,-169.0
177073.0720760732,-198.0
177073.0797589515,-191.0
177073.0874418298,-169.0
177073.09512470805,-174.0
177073.10280758634,-169.0
177073.11049046463,-154.0
177073.1181733429,-147.0
177073.1258562212,-147.0
177073.13353909948,-142.0
177073.14122197774,-133.0
177073.14890485603,-128.0
177073.15658773432,-123.0
177073.16427061261,-116.0
177073.17195349088,-101.0
177073.17963636917,-92.0
177073.18731924746,-79.0
177073.19500212572,-67.0
177073.202685004,-60.0
177073.2103678823,-53.0
177073.21805076057,-33.0
177073.22573363886,-24.0
177073.23341651715,-31.0
177073.2410993954,-21.0
177073.2487822737,-9.0
177073.256465152,-19.0
177073.26414803026,-31.0
177073.27183090855,-33.0
177073.27951378684,-55.0
177073.2871966651,-92.0
177073.2948795434,-116.0
177073.30256242168,-135.0
177073.31024529994,-162.0
177073.31792817824,-181.0
177073.32561105653,-186.0
177073.3332939348,-188.0
177073.34097681308,-196.0
177073.34865969137,-198.0
177073.35634256963,-186.0
177073.36402544793,-181.0
177073.37170832622,-191.0
177073.37939120448,-196.0
177073.38707408277,-186.0
177073.39475696106,-181.0
177073.40243983932,-184.0
177073.4101227176,-181.0
177073.4178055959,-174.0
177073.42548847417,-162.0
177073.43317135246,-152.0
177073.44085423075,-150.0
177073.448537109,-152.0
177073.4562199873,-152.0
177073.4639028656,-150.0
177073.4715857439,-150.0
177073.47926862215,-145.0
177073.48695150044,-138.0
177073.49463437873,-140.0
177073.502317257,-142.0
177073.51000013528,-140.0
177073.51768301358,-140.0
177073.52536589184,-140.0
177073.53304877013,-140.0
177073.54073164842,-138.0
177073.54841452668,-140.0
177073.55609740497,-142.0
177073.56378028326,-142.0
177073.57146316153,-140.0
177073.57914603982,-140.0
177073.5868289181,-140.0
177073.59451179637,-135.0
177073.60219467466,-138.0
177073.60987755295,-138.0
177073.61756043122,-135.0
177073.6252433095,-135.0
177073.6329261878,-140.0
177073.64060906606,-140.0
177073.64829194435,-145.0
177073.65597482264,-150.0
177073.6636577009,-150.0
177073.6713405792,-147.0
177073.6790234575,-138.0
177073.68670633575,-116.0
177073.69438921404,-96.0
177073.70207209233,-104.0
177073.7097549706,-130.0
177073.71743784889,-147.0
177073.72512072718,-147.0
177073.73280360544,-147.0
177073.74048648373,-150.0
177073.74816936202,-152.0
177073.75585224028,-150.0
177073.76353511857,-154.0
177073.77121799687,-162.0
177073.77890087513,-162.0
177073.78658375342,-159.0
177073.7942666317,-159.0
177073.80194951,-167.0
177073.80963238826,-191.0
177073.81731526655,-104.0
177073.82499814485,307.0
177073.8326810231,798.0
177073.8403639014,680.0
177073.8480467797,14.0
177073.85572965795,-302.0
177073.86341253624,-167.0
177073.87109541454,-162.0
177073.8787782928,-256.0
177073.8864611711,-227.0
177073.89414404938,-200.0
177073.90182692764,-225.0
177073.90950980593,-217.0
177073.91719268422,-198.0
177073.9248755625,-198.0
177073.93255844078,-193.0
177073.94024131907,-181.0
177073.94792419733,-179.0
177073.95560707562,-171.0
177073.9632899539,-162.0
177073.97097283218,-159.0
177073.97865571047,-154.0
177073.98633858876,-142.0
177073.99402146702,-130.0
177074.0017043453,-125.0
177074.0093872236,-118.0
177074.01707010187,-106.0
177074.02475298016,-94.0
177074.03243585845,-82.0
177074.0401187367,-72.0
177074.047801615,-65.0
177074.0554844933,-60.0
177074.06316737155,-53.0
177074.07085024985,-50.0
177074.07853312814,-48.0
177074.0862160064,-50.0
177074.0938988847,-58.0
177074.10158176298,-67.0
177074.10926464127,-84.0
177074.11694751953,-113.0
177074.12463039783,-145.0
177074.13231327612,-164.0
177074.13999615438,-179.0
177074.14767903267,-196.0
177074.15536191096,-208.0
177074.16304478922,-208.0
177074.17072766752,-208.0
177074.1784105458,-210.0
177074.18609342407,-210.0
177074.19377630236,-208.0
177074.20145918065,-208.0
177074.2091420589,-205.0
177074.2168249372,-200.0
177074.2245078155,-196.0
177074.23219069376,-193.0
177074.23987357205,-191.0
177074.24755645034,-186.0
177074.2552393286,-179.0
177074.2629222069,-174.0
177074.27060508518,-174.0
177074.27828796345,-174.0
177074.28597084174,-169.0
177074.29365372003,-164.0
177074.3013365983,-162.0
177074.30901947658,-162.0
177074.31670235487,-159.0
177074.32438523314,-159.0
177074.33206811143,-159.0
177074.33975098972,-159.0
177074.34743386798,-157.0
177074.35511674627,-157.0
177074.36279962456,-159.0
177074.37048250283,-162.0
177074.37816538112,-159.0
177074.3858482594,-162.0
177074.39353113767,-167.0
177074.40121401596,-167.0
177074.40889689425,-164.0
177074.4165797725,-162.0
177074.4242626508,-162.0
177074.4319455291,-162.0
177074.4396284074,-159.0
177074.44731128565,-157.0
177074.45499416394,-157.0
177074.46267704223,-154.0
177074.4703599205,-154.0
177074.4780427988,-157.0
177074.48572567708,-157.0
177074.49340855534,-154.0
177074.50109143363,-152.0
177074.50877431192,-157.0
177074.51645719018,-167.0
177074.52414006848,-169.0
177074.53182294677,-157.0
177074.53950582503,-135.0
177074.54718870332,-113.0
177074.5548715816,-111.0
177074.56255445987,-128.0
177074.57023733816,-145.0
177074.57792021646,-152.0
177074.58560309472,-152.0
177074.593285973,-150.0
177074.6009688513,-147.0
177074.60865172956,-152.0
177074.61633460785,-152.0
177074.62401748615,-152.0
177074.6317003644,-152.0
177074.6393832427,-152.0
177074.647066121,-150.0
177074.65474899925,-152.0
177074.66243187754,-176.0
177074.67011475583,-150.0
177074.6777976341,169.0
177074.6854805124,738.0
177074.69316339068,973.0
177074.70084626894,503.0
177074.70852914723,-118.0
177074.71621202552,-239.0
177074.7238949038,-147.0
177074.73157778208,-215.0
177074.73926066037,-254.0
177074.74694353866,-213.0
177074.75462641692,-220.0
177074.7623092952,-232.0
177074.7699921735,-220.0
177074.77767505177,-217.0
177074.78535793006,-220.0
177074.79304080835,-205.0
177074.8007236866,-193.0
177074.8084065649,-191.0
177074.8160894432,-186.0
177074.82377232146,-179.0
177074.83145519975,-171.0
177074.83913807804,-162.0
177074.8468209563,-157.0
177074.8545038346,-150.0
177074.86218671288,-140.0
177074.86986959114,-130.0
177074.87755246944,-123.0
177074.88523534773,-111.0
177074.892918226,-101.0
177074.90060110428,-92.0
177074.90828398257,-82.0
177074.91596686083,-75.0
177074.92364973912,-72.0
177074.93133261742,-70.0
177074.93901549568,-67.0
177074.94669837397,-67.0
177074.95438125226,-72.0
177074.96206413052,-87.0
177074.9697470088,-104.0
177074.9774298871,-125.0
177074.98511276537,-145.0
177074.99279564366,-162.0
177075.00047852195,-176.0
177075.0081614002,-184.0
177075.0158442785,-191.0
177075.0235271568,-196.0
177075.03121003506,-196.0
177075.03889291335,-191.0
177075.04657579164,-188.0
177075.05425866993,-186.0
177075.0619415482,-184.0
177075.06962442648,-181.0
177075.07730730477,-181.0
177075.08499018304,-179.0
177075.09267306133,-176.0
177075.10035593962,-174.0
177075.10803881788,-176.0
177075.11572169617,-174.0
177075.12340457446,-167.0
177075.13108745273,-162.0
177075.13877033102,-159.0
177075.1464532093,-157.0
177075.15413608757,-154.0
177075.16181896586,-152.0
177075.16950184415,-150.0
177075.17718472242,-147.0
177075.1848676007,-145.0
177075.192550479,-145.0
177075.20023335726,-145.0
177075.20791623555,-145.0
177075.21559911384,-145.0
177075.2232819921,-145.0
177075.2309648704,-145.0
177075.2386477487,-145.0
177075.24633062695,-145.0
177075.25401350524,-142.0
177075.26169638353,-140.0
177075.2693792618,-142.0
177075.27706214009,-142.0
177075.28474501838,-142.0
177075.29242789664,-147.0
177075.30011077493,-145.0
177075.30779365322,-142.0
177075.31547653148,-145.0
177075.32315940977,-145.0
177075.33084228807,-140.0
177075.33852516633,-140.0
177075.34620804462,-147.0
177075.3538909229,-154.0
177075.36157380117,-159.0
177075.36925667946,-162.0
177075.37693955775,-154.0
177075.38462243605,-135.0
177075.3923053143,-108.0
177075.3999881926,-104.0
177075.4076710709,-121.0
177075.41535394915,-135.0
177075.42303682744,-140.0
177075.43071970574,-142.0
177075.438402584,-145.0
177075.4460854623,-145.0
177075.45376834058,-147.0
177075.46145121884,-142.0
177075.46913409713,-142.0
177075.47681697542,-145.0
177075.4844998537,-140.0
177075.49218273198,-138.0
177075.49986561027,-145.0
177075.50754848853,-169.0
177075.51523136682,-167.0
177075.5229142451,65.0
177075.53059712338,605.0
177075.53828000167,966.0
177075.54596287996,631.0
177075.55364575822,-21.0
177075.5613286365,-239.0
177075.5690115148,-142.0
177075.57669439306,-186.0
177075.58437727136,-254.0
177075.59206014965,-220.0
177075.5997430279,-213.0
177075.6074259062,-230.0
177075.6151087845,-215.0
177075.62279166275,-203.0
177075.63047454105,-205.0
177075.63815741934,-193.0
177075.6458402976,-184.0
177075.6535231759,-181.0
177075.66120605418,-174.0
177075.66888893244,-162.0
177075.67657181073,-159.0
177075.68425468903,-154.0
177075.69193756732,-142.0
177075.69962044558,-130.0
177075.70730332387,-123.0
177075.71498620216,-116.0
177075.72266908042,-106.0
177075.73035195871,-92.0
177075.738034837,-82.0
177075.74571771527,-72.0
177075.75340059356,-65.0
177075.76108347185,-55.0
177075.7687663501,-53.0
177075.7764492284,-53.0
177075.7841321067,-50.0
177075.79181498496,-53.0
177075.79949786325,-60.0
177075.80718074154,-70.0
177075.8148636198,-89.0
177075.8225464981,-111.0
177075.83022937638,-130.0
177075.83791225465,-150.0
177075.84559513294,-164.0
177075.85327801123,-179.0
177075.8609608895,-188.0
177075.86864376778,-191.0
177075.87632664607,-186.0
177075.88400952434,-186.0
177075.89169240263,-184.0
177075.89937528092,-181.0
177075.90705815918,-179.0
177075.91474103747,-176.0
177075.92242391576,-171.0
177075.93010679403,-169.0
177075.93778967232,-167.0
177075.9454725506,-169.0
177075.95315542887,-167.0
177075.96083830716,-159.0
177075.96852118545,-154.0
177075.9762040637,-150.0
177075.983886942,-147.0
177075.9915698203,-145.0
177075.99925269856,-140.0
177076.00693557685,-138.0
177076.01461845514,-138.0
177076.02230133343,-135.0
177076.0299842117,-135.0
177076.03766709,-135.0
177076.04534996828,-138.0
177076.05303284654,-140.0
177076.06071572483,-142.0
177076.06839860312,-140.0
177076.07608148138,-140.0
177076.08376435968,-140.0
177076.09144723797,-145.0
177076.09913011623,-147.0
177076.10681299452,-147.0
177076.1144958728,-140.0
177076.12217875107,-135.0
177076.12986162936,-140.0
177076.13754450766,-140.0
177076.14522738592,-138.0
177076.1529102642,-138.0
177076.1605931425,-138.0
177076.16827602076,-133.0
177076.17595889905,-133.0
177076.18364177734,-138.0
177076.1913246556,-140.0
177076.1990075339,-140.0
177076.2066904122,-147.0
177076.21437329045,-152.0
177076.22205616874,-135.0
177076.22973904703,-111.0
177076.2374219253,-96.0
177076.2451048036,-101.0
177076.25278768188,-118.0
177076.26047056014,-130.0
177076.26815343843,-138.0
177076.27583631672,-142.0
177076.28351919499,-147.0
177076.29120207328,-150.0
177076.29888495157,-147.0
177076.30656782983,-147.0
177076.31425070812,-147.0
177076.3219335864,-145.0
177076.3296164647,-142.0
177076.33729934297,-140.0
177076.34498222126,-150.0
177076.35266509955,-171.0
177076.3603479778,-82.0
177076.3680308561,331.0
177076.3757137344,837.0
177076.38339661265,794.0
177076.39107949095,174.0
177076.39876236924,-239.0
177076.4064452475,-176.0
177076.4141281258,-142.0
177076.42181100408,-232.0
177076.42949388234,-220.0
177076.43717676064,-186.0
177076.44485963893,-205.0
177076.4525425172,-208.0
177076.46022539548,-191.0
177076.46790827377,-191.0
177076.47559115203,-186.0
177076.48327403032,-169.0
177076.49095690862,-167.0
177076.49863978688,-167.0
177076.50632266517,-154.0
177076.51400554346,-145.0
177076.52168842172,-138.0
177076.5293713,-133.0
177076.5370541783,-123.0
177076.54473705657,-113.0
177076.55241993486,-104.0
177076.56010281315,-92.0
177076.5677856914,-79.0
177076.5754685697,-72.0
177076.583151448,-67.0
177076.59083432626,-58.0
177076.59851720455,-43.0
177076.60620008284,-38.0
177076.6138829611,-41.0
177076.6215658394,-43.0
177076.62924871768,-36.0
177076.63693159595,-36.0
177076.64461447424,-50.0
177076.65229735253,-72.0
177076.65998023082,-94.0
177076.66766310908,-121.0
177076.67534598737,-140.0
177076.68302886566,-154.0
177076.69071174393,-174.0
177076.69839462222,-191.0
177076.7060775005,-196.0
177076.71376037877,-193.0
177076.72144325706,-188.0
177076.72912613535,-191.0
177076.73680901362,-196.0
177076.7444918919,-184.0
177076.7521747702,-174.0
177076.75985764846,-179.0
177076.76754052675,-184.0
177076.77522340504,-179.0
177076.7829062833,-176.0
177076.7905891616,-174.0
177076.7982720399,-171.0
177076.80595491815,-169.0
177076.81363779644,-164.0
177076.82132067473,-154.0
177076.829003553,-157.0
177076.83668643128,-154.0
177076.84436930958,-145.0
177076.85205218784,-145.0
177076.85973506613,-150.0
177076.86741794442,-147.0
177076.87510082268,-152.0
177076.88278370097,-150.0
177076.89046657927,-133.0
177076.89814945753,-133.0
177076.90583233582,-150.0
177076.9135152141,-142.0
177076.92119809237,-133.0
177076.92888097066,-140.0
177076.93656384895,-147.0
177076.94424672722,-145.0
177076.9519296055,-145.0
177076.9596124838,-140.0
177076.9672953621,-142.0
177076.97497824035,-140.0
177076.98266111864,-135.0
177076.99034399693,-138.0
177076.9980268752,-142.0
177077.0057097535,-135.0
177077.01339263178,-133.0
177077.02107551004,-145.0
177077.02875838833,-154.0
177077.03644126662,-145.0
177077.0441241449,-128.0
177077.05180702318,-106.0
177077.05948990147,-94.0
177077.06717277973,-111.0
177077.07485565802,-130.0
177077.0825385363,-138.0
177077.09022141458,-147.0
177077.09790429287,-150.0
177077.10558717116,-150.0
177077.11327004942,-154.0
177077.1209529277,-157.0
177077.128635806,-154.0
177077.13631868426,-150.0
177077.14400156256,-150.0
177077.15168444085,-150.0
177077.1593673191,-145.0
177077.1670501974,-154.0
177077.1747330757,-171.0
177077.18241595395,-19.0
177077.19009883224,464.0
177077.19778171054,859.0
177077.2054645888,522.0
177077.2131474671,-154.0
177077.22083034538,-290.0
177077.22851322364,-118.0
177077.23619610193,-179.0
177077.24387898023,-249.0
177077.2515618585,-188.0
177077.25924473678,-184.0
177077.26692761507,-210.0
177077.27461049333,-191.0
177077.28229337162,-174.0
177077.28997624991,-176.0
177077.2976591282,-174.0
177077.30534200647,-169.0
177077.31302488476,-167.0
177077.32070776305,-157.0
177077.3283906413,-147.0
177077.3360735196,-145.0
177077.3437563979,-140.0
177077.35143927616,-125.0
177077.35912215445,-111.0
177077.36680503274,-101.0
177077.374487911,-89.0
177077.3821707893,-79.0
177077.38985366758,-70.0
177077.39753654585,-58.0
177077.40521942414,-43.0
177077.41290230243,-33.0
177077.4205851807,-26.0
177077.42826805898,-19.0
177077.43595093727,-14.0
177077.44363381554,-14.0
177077.45131669383,-16.0
177077.45899957212,-19.0
177077.46668245038,-33.0
177077.47436532867,-62.0
177077.48204820696,-96.0
177077.48973108522,-123.0
177077.49741396352,-145.0
177077.5050968418,-164.0
177077.51277972007,-184.0
177077.52046259836,-193.0
177077.52814547665,-196.0
177077.5358283549,-198.0
177077.5435112332,-198.0
177077.5511941115,-196.0
177077.55887698976,-196.0
177077.56655986805,-196.0
177077.57424274634,-193.0
177077.5819256246,-188.0
177077.5896085029,-184.0
177077.5972913812,-179.0
177077.60497425948,-176.0
177077.61265713774,-171.0
177077.62034001603,-167.0
177077.62802289432,-159.0
177077.63570577258,-157.0
177077.64338865087,-152.0
177077.65107152917,-150.0
177077.65875440743,-145.0
177077.66643728572,-140.0
177077.674120164,-138.0
177077.68180304227,-138.0
177077.68948592056,-138.0
177077.69716879886,-138.0
177077.70485167712,-138.0
177077.7125345554,-138.0
177077.7202174337,-138.0
177077.72790031196,-135.0
177077.73558319025,-135.0
177077.74326606854,-138.0
177077.7509489468,-142.0
177077.7586318251,-140.0
177077.7663147034,-138.0
177077.77399758165,-138.0
177077.78168045994,-140.0
177077.78936333823,-138.0
177077.7970462165,-138.0
177077.8047290948,-140.0
177077.81241197308,-142.0
177077.82009485134,-142.0
177077.82777772963,-140.0
177077.83546060792,-140.0
177077.84314348618,-138.0
177077.85082636448,-140.0
177077.85850924277,-147.0
177077.86619212103,-150.0
177077.87387499932,-138.0
177077.8815578776,-118.0
177077.88924075587,-96.0
177077.89692363417,-92.0
177077.90460651246,-113.0
177077.91228939072,-133.0
177077.919972269,-138.0
177077.9276551473,-140.0
177077.9353380256,-140.0
177077.94302090385,-140.0
177077.95070378215,-140.0
177077.95838666044,-140.0
177077.9660695387,-138.0
177077.973752417,-138.0
177077.98143529528,-138.0
177077.98911817354,-135.0
177077.99680105184,-135.0
177078.00448393013,-157.0
177078.0121668084,-142.0
177078.01984968668,130.0
177078.02753256497,687.0
177078.03521544323,968.0
177078.04289832152,530.0
177078.05058119982,-106.0
177078.05826407808,-234.0
177078.06594695637,-125.0
177078.07362983466,-193.0
177078.08131271292,-242.0
177078.0889955912,-198.0
177078.0966784695,-200.0
177078.10436134777,-220.0
177078.11204422606,-203.0
177078.11972710435,-191.0
177078.1274099826,-188.0
177078.1350928609,-176.0
177078.1427757392,-167.0
177078.15045861746,-164.0
177078.15814149575,-157.0
177078.16582437404,-150.0
177078.1735072523,-147.0
177078.1811901306,-140.0
177078.18887300888,-128.0
177078.19655588715,-118.0
177078.20423876544,-111.0
177078.21192164373,-101.0
177078.219604522,-92.0
177078.22728740028,-82.0
177078.23497027857,-75.0
177078.24265315686,-65.0
177078.25033603513,-55.0
177078.25801891342,-50.0
177078.2657017917,-46.0
177078.27338466997,-43.0
177078.28106754826,-43.0
177078.28875042655,-43.0
177078.29643330481,-53.0
177078.3041161831,-72.0
177078.3117990614,-89.0
177078.31948193966,-111.0
177078.32716481795,-135.0
177078.33484769624,-157.0
177078.3425305745,-169.0
177078.3502134528,-176.0
177078.3578963311,-179.0
177078.36557920935,-181.0
177078.37326208764,-186.0
177078.38094496593,-188.0
177078.3886278442,-184.0
177078.39631072248,-179.0
177078.40399360078,-176.0
177078.41167647904,-171.0
177078.41935935733,-167.0
177078.42704223562,-167.0
177078.43472511388,-164.0
177078.44240799217,-162.0
177078.45009087046,-157.0
177078.45777374873,-150.0
177078.46545662702,-145.0
177078.4731395053,-142.0
177078.48082238357,-138.0
177078.48850526186,-130.0
177078.49618814015,-130.0
177078.50387101842,-133.0
177078.5115538967,-130.0
177078.519236775,-128.0
177078.52691965326,-128.0
177078.53460253155,-128.0
177078.54228540984,-128.0
177078.5499682881,-128.0
177078.5576511664,-128.0
177078.5653340447,-128.0
177078.57301692298,-128.0
177078.58069980124,-128.0
177078.58838267953,-128.0
177078.59606555782,-128.0
177078.6037484361,-128.0
177078.61143131438,-128.0
177078.61911419267,-123.0
177078.62679707093,-121.0
177078.63447994922,-121.0
177078.6421628275,-118.0
177078.64984570578,-113.0
177078.65752858407,-116.0
177078.66521146236,-123.0
177078.67289434062,-128.0
177078.6805772189,-125.0
177078.6882600972,-123.0
177078.69594297546,-135.0
177078.70362585376,-152.0
177078.71130873205,-147.0
177078.7189916103,-121.0
177078.7266744886,-96.0
177078.7343573669,-94.0
177078.74204024515,-104.0
177078.74972312344,-104.0
177078.75740600174,-108.0
177078.76508888,-130.0
177078.7727717583,-140.0
177078.78045463658,-130.0
177078.78813751484,-130.0
177078.79582039313,-133.0
177078.80350327143,-133.0
177078.8111861497,-140.0
177078.81886902798,-145.0
177078.82655190627,-133.0
177078.83423478453,-128.0
177078.84191766282,-145.0
177078.8496005411,-167.0
177078.85728341938,-29.0
177078.86496629767,443.0
177078.87264917596,912.0
177078.88033205425,755.0
177078.8880149325,101.0
177078.8956978108,-239.0
177078.9033806891,-154.0
177078.91106356736,-150.0
177078.91874644565,-237.0
177078.92642932394,-222.0
177078.9341122022,-200.0
177078.9417950805,-215.0
177078.94947795878,-208.0
177078.95716083705,-188.0
177078.96484371534,-184.0
177078.97252659363,-186.0
177078.9802094719,-184.0
177078.98789235018,-171.0
177078.99557522847,-164.0
177079.00325810674,-157.0
177079.01094098503,-150.0
177079.01862386332,-140.0
177079.02630674158,-130.0
177079.03398961987,-121.0
177079.04167249816,-118.0
177079.04935537642,-108.0
177079.05703825472,-89.0
177079.064721133,-77.0
177079.07240401127,-77.0
177079.08008688956,-72.0
177079.08776976785,-55.0
177079.0954526461,-46.0
177079.1031355244,-43.0
177079.1108184027,-36.0
177079.11850128096,-26.0
177079.12618415925,-26.0
177079.13386703754,-31.0
177079.1415499158,-43.0
177079.1492327941,-62.0
177079.15691567239,-96.0
177079.16459855065,-130.0
177079.17228142894,-150.0
177079.17996430723,-162.0
177079.18764718552,-179.0
177079.19533006378,-188.0
177079.20301294207,-186.0
177079.21069582037,-181.0
177079.21837869863,-184.0
177079.22606157692,-186.0
177079.2337444552,-184.0
177079.24142733347,-179.0
177079.24911021176,-179.0
177079.25679309005,-184.0
177079.26447596832,-186.0
177079.2721588466,-179.0
177079.2798417249,-167.0
177079.28752460316,-164.0
177079.29520748145,-167.0
177079.30289035974,-162.0
177079.310573238,-167.0
177079.3182561163,-171.0
177079.3259389946,-159.0
177079.33362187285,-152.0
177079.34130475114,-152.0
177079.34898762943,-142.0
177079.3566705077,-138.0
177079.364353386,-140.0
177079.37203626428,-145.0
177079.37971914254,-142.0
177079.38740202083,-142.0
177079.39508489912,-145.0
177079.40276777738,-142.0
177079.41045065568,-138.0
177079.41813353397,-140.0
177079.42581641223,-147.0
177079.43349929052,-154.0
177079.4411821688,-150.0
177079.44886504707,-145.0
177079.45654792537,-140.0
177079.46423080366,-135.0
177079.47191368192,-135.0
177079.4795965602,-133.0
177079.4872794385,-135.0
177079.49496231676,-138.0
177079.50264519505,-138.0
177079.51032807335,-130.0
177079.51801095164,-121.0
177079.5256938299,-123.0
177079.5333767082,-150.0
177079.54105958648,-159.0
177079.54874246474,-140.0
177079.55642534303,-121.0
177079.56410822133,-99.0
177079.5717910996,-77.0
177079.57947397788,-79.0
177079.58715685617,-101.0
177079.59483973443,-125.0
177079.60252261272,-142.0
177079.61020549102,-135.0
177079.61788836928,-123.0
177079.62557124757,-118.0
177079.63325412586,-116.0
177079.64093700412,-108.0
177079.6486198824,-101.0
177079.6563027607,-96.0
177079.66398563897,-99.0
177079.67166851726,-104.0
177079.67935139555,-116.0
177079.6870342738,-125.0
177079.6947171521,55.0
177079.7024000304,564.0
177079.71008290866,953.0
177079.71776578695,656.0
177079.72544866524,19.0
177079.7331315435,-188.0
177079.7408144218,-82.0
177079.74849730008,-118.0
177079.75618017834,-184.0
177079.76386305664,-145.0
177079.77154593493,-135.0
177079.7792288132,-154.0
177079.78691169148,-142.0
177079.79459456977,-135.0
177079.80227744803,-138.0
177079.80996032633,-121.0
177079.81764320462,-106.0
177079.8253260829,-113.0
177079.83300896117,-99.0
177079.84069183946,-62.0
177079.84837471775,-55.0
177079.85605759601,-79.0
177079.8637404743,-82.0
177079.8714233526,-60.0
177079.87910623086,-48.0
177079.88678910915,-38.0
177079.89447198744,-26.0
177079.9021548657,-9.0
177079.909837744,2.0
177079.9175206223,7.0
177079.92520350055,19.0
177079.93288637884,31.0
177079.94056925713,41.0
177079.9482521354,38.0
177079.95593501368,41.0
177079.96361789198,48.0
177079.97130077024,41.0
177079.97898364853,16.0
177079.98666652682,-4.0
177079.99434940508,-19.0
177080.00203228337,-41.0
177080.00971516166,-72.0
177080.01739803993,-89.0
177080.02508091822,-94.0
177080.0327637965,-99.0
177080.04044667477,-106.0
177080.04812955306,-111.0
177080.05581243135,-108.0
177080.06349530962,-104.0
177080.0711781879,-101.0
177080.0788610662,-96.0
177080.08654394446,-94.0
177080.09422682275,-94.0
177080.10190970104,-94.0
177080.1095925793,-101.0
177080.1172754576,-108.0
177080.1249583359,-104.0
177080.13264121415,-89.0
177080.14032409244,-82.0
177080.14800697073,-77.0
177080.15568984902,-75.0
177080.1633727273,-75.0
177080.17105560558,-72.0
177080.17873848387,-55.0
177080.18642136213,-53.0
177080.19410424042,-67.0
177080.2017871187,-70.0
177080.20946999697,-58.0
177080.21715287527,-46.0
177080.22483575356,-50.0
177080.23251863182,-70.0
177080.2402015101,-70.0
177080.2478843884,-50.0
177080.25556726666,-48.0
177080.26325014496,-60.0
177080.27093302325,-62.0
177080.2786159015,-65.0
177080.2862987798,-62.0
177080.2939816581,-50.0
177080.30166453635,-53.0
177080.30934741464,-65.0
177080.31703029294,-62.0
177080.3247131712,-70.0
177080.3323960495,-77.0
177080.34007892778,-62.0
177080.34776180604,-70.0
177080.35544468433,-84.0
177080.36312756262,-65.0
177080.3708104409,-31.0
177080.37849331918,-26.0
177080.38617619747,-33.0
177080.39385907573,-46.0
177080.40154195402,-62.0
177080.4092248323,-77.0
177080.41690771058,-77.0
177080.42459058887,-62.0
177080.43227346716,-67.0
177080.43995634542,-87.0
177080.4476392237,-79.0
177080.455322102,-65.0
177080.4630049803,-70.0
177080.47068785856,-82.0
177080.47837073685,-92.0
177080.48605361514,-104.0
177080.4937364934,-104.0
177080.5014193717,99.0
177080.50910224998,622.0
177080.51678512825,924.0
177080.52446800654,462.0
177080.53215088483,-157.0
177080.5398337631,-198.0
177080.54751664138,-75.0
177080.55519951967,-174.0
177080.56288239794,-200.0
177080.57056527623,-130.0
177080.57824815452,-140.0
177080.58593103278,-159.0
177080.59361391107,-138.0
177080.60129678936,-142.0
177080.60897966762,-152.0
177080.61666254592,-140.0
177080.6243454242,-135.0
177080.63202830247,-125.0
177080.63971118076,-94.0
177080.64739405905,-89.0
177080.6550769373,-101.0
177080.6627598156,-99.0
177080.6704426939,-92.0
177080.67812557216,-82.0
177080.68580845045,-62.0
177080.69349132874,-46.0
177080.701174207,-36.0
177080.7088570853,-41.0
177080.71653996359,-36.0
177080.72422284185,-19.0
177080.73190572014,4.0
177080.73958859843,21.0
177080.7472714767,12.0
177080.75495435498,0.0
177080.76263723327,4.0
177080.77032011154,0.0
177080.77800298983,0.0
177080.78568586812,-9.0
177080.7933687464,-55.0
177080.80105162467,-101.0
177080.80873450296,-106.0
177080.81641738125,-116.0
177080.82410025952,-140.0
177080.8317831378,-145.0
177080.8394660161,-145.0
177080.84714889436,-157.0
177080.85483177265,-174.0
177080.86251465094,-164.0
177080.8701975292,-140.0
177080.8778804075,-140.0
177080.8855632858,-147.0
177080.89324616405,-150.0
177080.90092904234,-150.0
177080.90861192063,-142.0
177080.9162947989,-128.0
177080.9239776772,-125.0
177080.93166055548,-152.0
177080.93934343374,-150.0
177080.94702631203,-123.0
177080.95470919032,-121.0
177080.96239206858,-133.0
177080.97007494688,-125.0
177080.97775782517,-111.0
177080.98544070343,-130.0
177080.99312358172,-142.0
177081.00080646,-108.0
177081.00848933827,-87.0
177081.01617221656,-118.0
177081.02385509486,-140.0
177081.03153797312,-111.0
177081.0392208514,-92.0
177081.0469037297,-111.0
177081.05458660796,-123.0
177081.06226948625,-116.0
177081.06995236455,-106.0
177081.0776352428,-106.0
177081.0853181211,-123.0
177081.0930009994,-133.0
177081.10068387768,-116.0
177081.10836675594,-101.0
177081.11604963423,-108.0
177081.12373251253,-130.0
177081.1314153908,-133.0
177081.13909826908,-111.0
177081.14678114737,-118.0
177081.15446402563,-123.0
177081.16214690392,-77.0
177081.16982978221,-55.0
177081.17751266048,-101.0
177081.18519553877,-121.0
177081.19287841706,-89.0
177081.20056129532,-92.0
177081.2082441736,-135.0
177081.2159270519,-147.0
177081.22360993017,-113.0
177081.23129280846,-101.0
177081.23897568675,-121.0
177081.246658565,-130.0
177081.2543414433,-130.0
177081.2620243216,-111.0
177081.26970719986,-116.0
177081.27739007815,-150.0
177081.28507295644,-118.0
177081.2927558347,118.0
177081.300438713,595.0
177081.30812159128,767.0
177081.31580446954,222.0
177081.32348734784,-290.0
177081.33117022613,-208.0
177081.3388531044,-96.0
177081.34653598268,-200.0
177081.35421886097,-198.0
177081.36190173923,-154.0
177081.36958461753,-181.0
177081.37726749582,-186.0
177081.38495037408,-164.0
177081.39263325237,-154.0
177081.40031613066,-157.0
177081.40799900892,-162.0
177081.4156818872,-152.0
177081.4233647655,-138.0
177081.4310476438,-140.0
177081.43873052206,-138.0
177081.44641340035,-125.0
177081.45409627864,-118.0
177081.4617791569,-118.0
177081.4694620352,-113.0
177081.4771449135,-101.0
177081.48482779175,-94.0
177081.49251067004,-87.0
177081.50019354833,-75.0
177081.5078764266,-70.0
177081.51555930488,-65.0
177081.52324218318,-60.0
177081.53092506144,-62.0
177081.53860793973,-58.0
177081.54629081802,-55.0
177081.55397369628,-70.0
177081.56165657457,-82.0
177081.56933945286,-84.0
177081.57702233113,-96.0
177081.58470520942,-118.0
177081.5923880877,-147.0
177081.60007096597,-174.0
177081.60775384426,-186.0
177081.61543672255,-193.0
177081.62311960082,-200.0
177081.6308024791,-200.0
177081.6384853574,-188.0
177081.64616823566,-193.0
177081.65385111395,-210.0
177081.66153399224,-213.0
177081.6692168705,-198.0
177081.6768997488,-193.0
177081.6845826271,-193.0
177081.69226550535,-188.0
177081.69994838364,-181.0
177081.70763126193,-186.0
177081.7153141402,-191.0
177081.72299701849,-181.0
177081.73067989678,-167.0
177081.73836277507,-159.0
177081.74604565333,-159.0
177081.75372853162,-159.0
177081.7614114099,-154.0
177081.76909428817,-154.0
177081.77677716647,-150.0
177081.78446004476,-142.0
177081.79214292302,-147.0
177081.7998258013,-154.0
177081.8075086796,-152.0
177081.81519155786,-150.0
177081.82287443615,-147.0
177081.83055731445,-152.0
177081.8382401927,-152.0
177081.845923071,-152.0
177081.8536059493,-150.0
177081.86128882755,-150.0
177081.86897170584,-147.0
177081.87665458414,-145.0
177081.8843374624,-142.0
177081.8920203407,-145.0
177081.89970321898,-145.0
177081.90738609724,-140.0
177081.91506897553,-135.0
177081.92275185382,-138.0
177081.9304347321,-138.0
177081.93811761038,-130.0
177081.94580048867,-130.0
177081.95348336693,-130.0
177081.96116624522,-133.0
177081.9688491235,-138.0
177081.97653200178,-142.0
177081.98421488007,-140.0
177081.99189775836,-125.0
177081.99958063662,-104.0
177082.0072635149,-96.0
177082.0149463932,-108.0
177082.02262927147,-121.0
177082.03031214976,-125.0
177082.03799502805,-130.0
177082.0456779063,-130.0
177082.0533607846,-128.0
177082.0610436629,-125.0
177082.06872654118,-128.0
177082.07640941945,-128.0
177082.08409229774,-128.0
177082.09177517603,-128.0
177082.0994580543,-125.0
177082.10714093258,-130.0
177082.11482381087,-150.0
177082.12250668913,-101.0
177082.13018956743,239.0
177082.13787244572,777.0
177082.14555532398,924.0
177082.15323820227,414.0
177082.16092108056,-152.0
177082.16860395882,-217.0
177082.17628683712,-125.0
177082.1839697154,-200.0
177082.19165259367,-242.0
177082.19933547196,-198.0
177082.20701835025,-203.0
177082.2147012285,-220.0
177082.2223841068,-203.0
177082.2300669851,-196.0
177082.23774986336,-196.0
177082.24543274165,-188.0
177082.25311561994,-186.0
177082.2607984982,-186.0
177082.2684813765,-176.0
177082.27616425478,-169.0
177082.28384713305,-164.0
177082.29153001134,-159.0
177082.29921288963,-152.0
177082.3068957679,-147.0
177082.31457864618,-145.0
177082.32226152447,-135.0
177082.32994440274,-128.0
177082.33762728103,-125.0
177082.34531015932,-118.0
177082.35299303758,-106.0
177082.36067591587,-104.0
177082.36835879416,-104.0
177082.37604167245,-101.0
177082.38372455072,-99.0
177082.391407429,-106.0
177082.3990903073,-108.0
177082.40677318556,-108.0
177082.41445606385,-116.0
177082.42213894214,-125.0
177082.4298218204,-140.0
177082.4375046987,-150.0
177082.445187577,-159.0
177082.45287045525,-167.0
177082.46055333354,-174.0
177082.46823621183,-176.0
177082.4759190901,-179.0
177082.4836019684,-176.0
177082.49128484668,-176.0
177082.49896772494,-176.0
177082.50665060323,-174.0
177082.51433348152,-167.0
177082.52201635978,-164.0
177082.52969923808,-164.0
177082.53738211637,-167.0
177082.54506499463,-167.0
177082.55274787292,-164.0
177082.5604307512,-159.0
177082.56811362947,-157.0
177082.57579650776,-157.0
177082.58347938606,-159.0
177082.59116226432,-164.0
177082.5988451426,-157.0
177082.6065280209,-154.0
177082.61421089916,-154.0
177082.62189377745,-152.0
177082.62957665575,-150.0
177082.637259534,-150.0
177082.6449424123,-147.0
177082.6526252906,-145.0
177082.66030816885,-147.0
177082.66799104714,-145.0
177082.67567392543,-145.0
177082.6833568037,-145.0
177082.691039682,-145.0
177082.69872256028,-145.0
177082.70640543857,-145.0
177082.71408831683,-142.0
177082.72177119512,-140.0
177082.72945407341,-142.0
177082.73713695168,-145.0
177082.74481982997,-142.0
177082.75250270826,-142.0
177082.76018558652,-142.0
177082.7678684648,-142.0
177082.7755513431,-145.0
177082.78323422137,-142.0
177082.79091709966,-150.0
177082.79859997795,-159.0
177082.8062828562,-154.0
177082.8139657345,-138.0
177082.8216486128,-113.0
177082.82933149106,-104.0
177082.83701436935,-121.0
177082.84469724764,-140.0
177082.8523801259,-145.0
177082.8600630042,-147.0
177082.86774588248,-147.0
177082.87542876074,-145.0
177082.88311163904,-145.0
177082.89079451733,-150.0
177082.8984773956,-147.0
177082.90616027388,-147.0
177082.91384315217,-150.0
177082.92152603043,-150.0
177082.92920890872,-147.0
177082.93689178702,-162.0
177082.94457466528,-162.0
177082.95225754357,58.0
177082.95994042186,573.0
177082.96762330012,888.0
177082.9753061784,542.0
177082.9829890567,-65.0
177082.99067193497,-256.0
177082.99835481326,-167.0
177083.00603769155,-200.0
177083.01372056984,-256.0
177083.0214034481,-227.0
177083.0290863264,-222.0
177083.0367692047,-244.0
177083.04445208295,-227.0
177083.05213496124,-213.0
177083.05981783953,-213.0
177083.0675007178,-205.0
177083.07518359608,-193.0
177083.08286647437,-191.0
177083.09054935264,-188.0
177083.09823223093,-184.0
177083.10591510922,-174.0
177083.11359798748,-167.0
177083.12128086577,-159.0
177083.12896374406,-157.0
177083.13664662233,-150.0
177083.14432950062,-140.0
177083.1520123789,-130.0
177083.15969525717,-121.0
177083.16737813546,-111.0
177083.17506101375,-101.0
177083.18274389202,-96.0
177083.1904267703,-94.0
177083.1981096486,-87.0
177083.20579252686,-82.0
177083.21347540515,-87.0
177083.22115828344,-89.0
177083.2288411617,-94.0
177083.23652404,-104.0
177083.2442069183,-116.0
177083.25188979655,-133.0
177083.25957267484,-145.0
177083.26725555313,-159.0
177083.2749384314,-174.0
177083.28262130969,-184.0
177083.29030418798,-188.0
177083.29798706624,-186.0
177083.30566994453,-184.0
177083.31335282282,-181.0
177083.3210357011,-179.0
177083.32871857937,-176.0
177083.33640145767,-176.0
177083.34408433596,-176.0
177083.35176721422,-174.0
177083.3594500925,-171.0
177083.3671329708,-174.0
177083.37481584906,-169.0
177083.38249872735,-164.0
177083.39018160565,-162.0
177083.3978644839,-162.0
177083.4055473622,-157.0
177083.4132302405,-154.0
177083.42091311875,-154.0
177083.42859599704,-150.0
177083.43627887534,-142.0
177083.4439617536,-140.0
177083.4516446319,-140.0
177083.45932751018,-140.0
177083.46701038844,-138.0
177083.47469326673,-138.0
177083.48237614502,-140.0
177083.4900590233,-140.0
177083.49774190158,-138.0
177083.50542477987,-135.0
177083.51310765813,-135.0
177083.52079053642,-133.0
177083.5284734147,-130.0
177083.53615629298,-130.0
177083.54383917127,-130.0
177083.55152204956,-130.0
177083.55920492782,-133.0
177083.5668878061,-130.0
177083.5745706844,-125.0
177083.58225356266,-123.0
177083.58993644096,-123.0
177083.59761931925,-121.0
177083.6053021975,-123.0
177083.6129850758,-125.0
177083.6206679541,-130.0
177083.62835083235,-130.0
177083.63603371065,-113.0
177083.64371658894,-84.0
177083.65139946723,-75.0
177083.6590823455,-87.0
177083.66676522378,-101.0
177083.67444810207,-108.0
177083.68213098033,-108.0
177083.68981385863,-108.0
177083.69749673692,-111.0
177083.70517961518,-113.0
177083.71286249347,-111.0
177083.72054537176,-113.0
177083.72822825002,-118.0
177083.73591112831,-116.0
177083.7435940066,-113.0
177083.75127688487,-113.0
177083.75895976316,-125.0
177083.76664264145,-130.0
177083.7743255197,48.0
177083.782008398,535.0
177083.7896912763,886.0
177083.79737415456,590.0
177083.80505703285,-7.0
177083.81273991114,-217.0
177083.8204227894,-128.0
177083.8281056677,-154.0
177083.83578854598,-217.0
177083.84347142425,-196.0
177083.85115430254,-193.0
177083.85883718083,-205.0
177083.8665200591,-193.0
177083.87420293738,-181.0
177083.88188581567,-181.0
177083.88956869394,-174.0
177083.89725157223,-167.0
177083.90493445052,-164.0
177083.91261732878,-159.0
177083.92030020707,-152.0
177083.92798308536,-147.0
177083.93566596363,-142.0
177083.94334884192,-133.0
177083.9510317202,-125.0
177083.9587145985,-116.0
177083.96639747676,-111.0
177083.97408035505,-106.0
177083.98176323334,-96.0
177083.9894461116,-84.0
177083.9971289899,-77.0
177084.0048118682,-67.0
177084.01249474645,-62.0
177084.02017762474,-62.0
177084.02786050303,-60.0
177084.0355433813,-60.0
177084.0432262596,-62.0
177084.05090913788,-70.0
177084.05859201614,-77.0
177084.06627489443,-89.0
177084.07395777272,-106.0
177084.08164065098,-123.0
177084.08932352928,-135.0
177084.09700640757,-142.0
177084.10468928583,-150.0
177084.11237216412,-157.0
177084.1200550424,-157.0
177084.12773792067,-154.0
177084.13542079896,-154.0
177084.14310367726,-154.0
177084.15078655552,-150.0
177084.1584694338,-150.0
177084.1661523121,-147.0
177084.17383519036,-142.0
177084.18151806865,-138.0
177084.18920094694,-135.0
177084.1968838252,-135.0
177084.2045667035,-133.0
177084.2122495818,-133.0
177084.21993246005,-133.0
177084.22761533834,-130.0
177084.23529821663,-128.0
177084.2429810949,-128.0
177084.2506639732,-123.0
177084.25834685148,-121.0
177084.26602972974,-116.0
177084.27371260803,-113.0
177084.28139548632,-113.0
177084.2890783646,-116.0
177084.29676124288,-113.0
177084.30444412117,-111.0
177084.31212699946,-111.0
177084.31980987772,-111.0
177084.327492756,-111.0
177084.3351756343,-111.0
177084.34285851257,-113.0
177084.35054139086,-118.0
177084.35822426915,-118.0
177084.3659071474,-113.0
177084.3735900257,-111.0
177084.381272904,-113.0
177084.38895578225,-113.0
177084.39663866055,-111.0
177084.40432153884,-108.0
177084.4120044171,-111.0
177084.4196872954,-108.0
177084.42737017368,-106.0
177084.43505305194,-108.0
177084.44273593024,-113.0
177084.45041880853,-121.0
177084.4581016868,-116.0
177084.46578456508,-101.0
177084.47346744337,-84.0
177084.48115032163,-77.0
177084.48883319992,-87.0
177084.49651607822,-104.0
177084.50419895648,-113.0
177084.51188183477,-106.0
177084.51956471306,-101.0
177084.52724759132,-111.0
177084.5349304696,-123.0
177084.5426133479,-125.0
177084.55029622617,-121.0
177084.55797910446,-116.0
177084.56566198275,-108.0
177084.573344861,-111.0
177084.5810277393,-118.0
177084.5887106176,-130.0
177084.59639349589,-121.0
177084.60407637415,121.0
177084.61175925244,627.0
177084.61944213073,847.0
177084.627125009,404.0
177084.63480788728,-128.0
177084.64249076557,-191.0
177084.65017364384,-106.0
177084.65785652213,-176.0
177084.66553940042,-213.0
177084.67322227868,-169.0
177084.68090515697,-171.0
177084.68858803526,-188.0
177084.69627091353,-174.0
177084.70395379182,-169.0
177084.7116366701,-174.0
177084.71931954837,-159.0
177084.72700242666,-147.0
177084.73468530495,-152.0
177084.74236818322,-150.0
177084.7500510615,-135.0
177084.7577339398,-123.0
177084.76541681806,-125.0
177084.77309969635,-118.0
177084.78078257464,-104.0
177084.7884654529,-99.0
177084.7961483312,-96.0
177084.8038312095,-82.0
177084.81151408775,-75.0
177084.81919696604,-72.0
177084.82687984433,-62.0
177084.8345627226,-55.0
177084.84224560088,-50.0
177084.84992847918,-50.0
177084.85761135744,-58.0
177084.86529423573,-62.0
177084.87297711402,-58.0
177084.88065999228,-60.0
177084.88834287057,-72.0
177084.89602574887,-84.0
177084.90370862713,-104.0
177084.91139150542,-118.0
177084.9190743837,-125.0
177084.926757262,-142.0
177084.93444014026,-159.0
177084.94212301855,-164.0
177084.94980589685,-162.0
177084.9574887751,-152.0
177084.9651716534,-157.0
177084.9728545317,-169.0
177084.98053740995,-159.0
177084.98822028824,-147.0
177084.99590316653,-150.0
177085.0035860448,-154.0
177085.0112689231,-150.0
177085.01895180138,-135.0
177085.02663467964,-133.0
177085.03431755793,-145.0
177085.04200043622,-152.0
177085.0496833145,-147.0
177085.05736619278,-135.0
177085.06504907107,-133.0
177085.07273194933,-142.0
177085.08041482762,-138.0
177085.0880977059,-121.0
177085.09578058418,-123.0
177085.10346346247,-130.0
177085.11114634076,-128.0
177085.11882921902,-123.0
177085.1265120973,-128.0
177085.1341949756,-135.0
177085.14187785386,-128.0
177085.14956073216,-116.0
177085.15724361045,-123.0
177085.1649264887,-128.0
177085.172609367,-116.0
177085.1802922453,-116.0
177085.18797512355,-121.0
177085.19565800185,-118.0
177085.20334088014,-121.0
177085.2110237584,-125.0
177085.2187066367,-123.0
177085.22638951498,-121.0
177085.23407239327,-125.0
177085.24175527153,-118.0
177085.24943814983,-108.0
177085.25712102812,-113.0
177085.26480390638,-118.0
177085.27248678467,-116.0
177085.28016966296,-121.0
177085.28785254122,-121.0
177085.29553541951,-101.0
177085.3032182978,-79.0
177085.31090117607,-72.0
177085.31858405436,-82.0
177085.32626693265,-94.0
177085.3339498109,-111.0
177085.3416326892,-118.0
177085.3493155675,-113.0
177085.35699844576,-116.0
177085.36468132405,-123.0
177085.37236420234,-128.0
177085.3800470806,-128.0
177085.3877299589,-130.0
177085.39541283718,-128.0
177085.40309571545,-128.0
177085.41077859374,-128.0
177085.41846147203,-133.0
177085.4261443503,-128.0
177085.43382722858,70.0
177085.44151010687,554.0
177085.44919298514,774.0
177085.45687586343,266.0
177085.46455874172,-273.0
177085.47224161998,-215.0
177085.47992449827,-84.0
177085.48760737656,-186.0
177085.49529025482,-200.0
177085.50297313312,-147.0
177085.5106560114,-167.0
177085.51833888967,-181.0
177085.52602176796,-159.0
177085.53370464625,-159.0
177085.5413875245,-164.0
177085.5490704028,-150.0
177085.5567532811,-138.0
177085.5644361594,-133.0
177085.57211903765,-128.0
177085.57980191594,-121.0
177085.58748479423,-118.0
177085.5951676725,-108.0
177085.6028505508,-99.0
177085.61053342908,-99.0
177085.61821630734,-96.0
177085.62589918563,-84.0
177085.63358206392,-75.0
177085.64126494218,-70.0
177085.64894782047,-65.0
177085.65663069877,-53.0
177085.66431357703,-48.0
177085.67199645532,-48.0
177085.6796793336,-48.0
177085.68736221187,-50.0
177085.69504509016,-58.0
177085.70272796846,-60.0
177085.71041084672,-65.0
177085.718093725,-75.0
177085.7257766033,-89.0
177085.73345948156,-108.0
177085.74114235985,-125.0
177085.74882523814,-140.0
177085.7565081164,-152.0
177085.7641909947,-162.0
177085.771873873,-169.0
177085.77955675125,-171.0
177085.78723962954,-174.0
177085.79492250783,-171.0
177085.8026053861,-167.0
177085.8102882644,-164.0
177085.81797114268,-162.0
177085.82565402094,-159.0
177085.83333689923,-154.0
177085.84101977752,-152.0
177085.84870265579,-150.0
177085.85638553408,-152.0
177085.86406841237,-152.0
177085.87175129066,-145.0
177085.87943416892,-140.0
177085.8871170472,-140.0
177085.8947999255,-135.0
177085.90248280377,-133.0
177085.91016568206,-135.0
177085.91784856035,-135.0
177085.9255314386,-130.0
177085.9332143169,-130.0
177085.9408971952,-133.0
177085.94858007345,-133.0
177085.95626295175,-135.0
177085.96394583004,-133.0
177085.9716287083,-135.0
177085.9793115866,-133.0
177085.98699446488,-130.0
177085.99467734314,-130.0
177086.00236022144,-130.0
177086.01004309973,-128.0
177086.017725978,-125.0
177086.02540885628,-128.0
177086.03309173457,-128.0
177086.04077461283,-128.0
177086.04845749112,-128.0
177086.05614036942,-123.0
177086.06382324768,-125.0
177086.07150612597,-125.0
177086.07918900426,-123.0
177086.08687188252,-121.0
177086.0945547608,-123.0
177086.1022376391,-123.0
177086.10992051737,-118.0
177086.11760339566,-121.0
177086.12528627395,-125.0
177086.1329691522,-130.0
177086.1406520305,-130.0
177086.1483349088,-123.0
177086.15601778706,-106.0
177086.16370066535,-89.0
177086.17138354364,-94.0
177086.1790664219,-111.0
177086.1867493002,-123.0
177086.19443217848,-125.0
177086.20211505677,-128.0
177086.20979793504,-130.0
177086.21748081333,-130.0
177086.22516369162,-133.0
177086.23284656988,-135.0
177086.24052944817,-135.0
177086.24821232646,-135.0
177086.25589520473,-133.0
177086.26357808302,-128.0
177086.2712609613,-135.0
177086.27894383957,-154.0
177086.28662671786,-26.0
177086.29430959615,428.0
177086.30199247441,861.0
177086.3096753527,668.0
177086.317358231,46.0
177086.32504110926,-239.0
177086.33272398755,-145.0
177086.34040686584,-145.0
177086.3480897441,-220.0
177086.3557726224,-203.0
177086.3634555007,-188.0
177086.37113837895,-210.0
177086.37882125724,-198.0
177086.38650413553,-184.0
177086.3941870138,-184.0
177086.40186989208,-179.0
177086.40955277038,-169.0
177086.41723564864,-167.0
177086.42491852693,-164.0
177086.43260140522,-157.0
177086.44028428348,-152.0
177086.44796716177,-150.0
177086.45565004006,-140.0
177086.46333291833,-133.0
177086.47101579662,-128.0
177086.4786986749,-121.0
177086.48638155317,-111.0
177086.49406443146,-106.0
177086.50174730975,-101.0
177086.50943018805,-94.0
177086.5171130663,-87.0
177086.5247959446,-84.0
177086.5324788229,-84.0
177086.54016170115,-84.0
177086.54784457944,-87.0
177086.55552745773,-92.0
177086.563210336,-94.0
177086.5708932143,-96.0
177086.57857609258,-101.0
177086.58625897084,-111.0
177086.59394184913,-121.0
177086.60162472742,-133.0
177086.6093076057,-138.0
177086.61699048398,-142.0
177086.62467336227,-150.0
177086.63235624053,-152.0
177086.64003911882,-152.0
177086.6477219971,-150.0
177086.65540487538,-150.0
177086.66308775367,-145.0
177086.67077063196,-145.0
177086.67845351022,-145.0
177086.6861363885,-145.0
177086.6938192668,-150.0
177086.70150214506,-147.0
177086.70918502336,-142.0
177086.71686790165,-140.0
177086.7245507799,-140.0
177086.7322336582,-140.0
177086.7399165365,-135.0
177086.74759941475,-135.0
177086.75528229304,-135.0
177086.76296517134,-133.0
177086.7706480496,-130.0
177086.7783309279,-130.0
177086.78601380618,-130.0
177086.79369668444,-128.0
177086.80137956273,-123.0
177086.80906244103,-125.0
177086.8167453193,-125.0
177086.82442819758,-123.0
177086.83211107587,-123.0
177086.83979395416,-125.0
177086.84747683242,-125.0
177086.8551597107,-123.0
177086.862842589,-125.0
177086.87052546727,-130.0
177086.87820834556,-130.0
177086.88589122385,-125.0
177086.8935741021,-125.0
177086.9012569804,-125.0
177086.9089398587,-125.0
177086.91662273696,-123.0
177086.92430561525,-125.0
177086.93198849354,-125.0
177086.9396713718,-125.0
177086.9473542501,-121.0
177086.95503712838,-121.0
177086.96272000665,-128.0
177086.97040288494,-135.0
177086.97808576323,-133.0
177086.9857686415,-118.0
177086.99345151978,-99.0
177087.00113439807,-84.0
177087.00881727634,-94.0
177087.01650015463,-111.0
177087.02418303292,-123.0
177087.03186591118,-128.0
177087.03954878947,-125.0
177087.04723166776,-125.0
177087.05491454602,-128.0
177087.06259742432,-130.0
177087.0702803026,-130.0
177087.07796318087,-130.0
177087.08564605916,-130.0
177087.09332893745,-130.0
177087.1010118157,-128.0
177087.108694694,-138.0
177087.1163775723,-147.0
177087.12406045056,33.0
177087.13174332885,520.0
177087.13942620714,849.0
177087.14710908543,520.0
177087.1547919637,-62.0
177087.16247484199,-220.0
177087.17015772028,-125.0
177087.17784059854,-162.0
177087.18552347683,-213.0
177087.19320635512,-184.0
177087.20088923338,-181.0
177087.20857211167,-198.0
177087.21625498997,-184.0
177087.22393786823,-171.0
177087.23162074652,-174.0
177087.2393036248,-167.0
177087.24698650307,-157.0
177087.25466938136,-157.0
177087.26235225966,-157.0
177087.27003513792,-150.0
177087.2777180162,-140.0
177087.2854008945,-133.0
177087.29308377276,-130.0
177087.30076665105,-123.0
177087.30844952934,-113.0
177087.3161324076,-108.0
177087.3238152859,-99.0
177087.3314981642,-94.0
177087.33918104245,-87.0
177087.34686392074,-79.0
177087.35454679903,-75.0
177087.3622296773,-77.0
177087.3699125556,-79.0
177087.37759543388,-79.0
177087.38527831214,-79.0
177087.39296119043,-82.0
177087.40064406872,-84.0
177087.40832694698,-92.0
177087.41600982528,-106.0
177087.42369270357,-118.0
177087.43137558183,-128.0
177087.43905846012,-138.0
177087.4467413384,-145.0
177087.4544242167,-152.0
177087.46210709497,-154.0
177087.46978997326,-162.0
177087.47747285155,-162.0
177087.4851557298,-159.0
177087.4928386081,-157.0
177087.5005214864,-154.0
177087.50820436465,-150.0
177087.51588724295,-147.0
177087.52357012124,-145.0
177087.5312529995,-142.0
177087.5389358778,-138.0
177087.54661875608,-133.0
177087.55430163434,-130.0
177087.56198451263,-130.0
177087.56966739093,-130.0
177087.5773502692,-128.0
177087.58503314748,-128.0
177087.59271602577,-125.0
177087.60039890403,-123.0
177087.60808178232,-121.0
177087.61576466062,-123.0
177087.62344753888,-121.0
177087.63113041717,-121.0
177087.63881329546,-118.0
177087.64649617372,-116.0
177087.654179052,-113.0
177087.6618619303,-118.0
177087.66954480857,-121.0
177087.67722768686,-118.0
177087.68491056515,-116.0
177087.6925934434,-118.0
177087.7002763217,-116.0
177087.7079592,-113.0
177087.71564207826,-113.0
177087.72332495655,-113.0
177087.73100783484,-113.0
177087.7386907131,-113.0
177087.7463735914,-111.0
177087.75405646968,-113.0
177087.76173934794,-111.0
177087.76942222624,-108.0
177087.77710510453,-106.0
177087.78478798282,-106.0
177087.79247086108,-111.0
177087.80015373937,-123.0
177087.80783661766,-133.0
177087.81551949593,-125.0
177087.82320237422,-108.0
177087.8308852525,-87.0
177087.83856813077,-77.0
177087.84625100906,-89.0
177087.85393388735,-108.0
177087.86161676561,-121.0
177087.8692996439,-128.0
177087.8769825222,-133.0
177087.88466540046,-133.0
177087.89234827875,-135.0
177087.90003115704,-135.0
177087.9077140353,-135.0
177087.9153969136,-138.0
177087.9230797919,-135.0
177087.93076267015,-130.0
177087.93844554844,-128.0
177087.94612842673,-140.0
177087.953811305,-135.0
177087.96149418328,82.0
177087.96917706158,578.0
177087.97685993984,823.0
177087.98454281813,409.0
177087.99222569642,-128.0
177087.99990857468,-203.0
177088.00759145297,-108.0
177088.01527433126,-164.0
177088.02295720953,-200.0
177088.03064008782,-169.0
177088.0383229661,-176.0
177088.04600584437,-188.0
177088.05368872266,-171.0
177088.06137160095,-164.0
177088.06905447922,-164.0
177088.0767373575,-157.0
177088.0844202358,-147.0
177088.0921031141,-145.0
177088.09978599235,-140.0
177088.10746887064,-135.0
177088.11515174893,-128.0
177088.1228346272,-121.0
177088.1305175055,-116.0
177088.13820038378,-108.0
177088.14588326204,-101.0
177088.15356614033,-94.0
177088.16124901862,-92.0
177088.1689318969,-84.0
177088.17661477518,-77.0
177088.18429765347,-72.0
177088.19198053173,-70.0
177088.19966341002,-65.0
177088.2073462883,-65.0
177088.21502916657,-67.0
177088.22271204487,-70.0
177088.23039492316,-70.0
177088.23807780142,-75.0
177088.2457606797,-82.0
177088.253443558,-92.0
177088.26112643626,-106.0
177088.26880931456,-118.0
177088.27649219285,-133.0
177088.2841750711,-142.0
177088.2918579494,-150.0
177088.2995408277,-152.0
177088.30722370595,-154.0
177088.31490658424,-154.0
177088.32258946254,-152.0
177088.3302723408,-150.0
177088.3379552191,-150.0
177088.34563809738,-147.0
177088.35332097564,-147.0
177088.36100385393,-142.0
177088.36868673222,-140.0
177088.3763696105,-140.0
177088.38405248878,-142.0
177088.39173536707,-140.0
177088.39941824533,-138.0
177088.40710112362,-135.0
177088.4147840019,-135.0
177088.4224668802,-133.0
177088.43014975847,-133.0
177088.43783263676,-135.0
177088.44551551505,-133.0
177088.4531983933,-130.0
177088.4608812716,-130.0
177088.4685641499,-130.0
177088.47624702816,-128.0
177088.48392990645,-125.0
177088.49161278474,-128.0
177088.499295663,-128.0
177088.5069785413,-125.0
177088.51466141958,-128.0
177088.52234429785,-130.0
177088.53002717614,-128.0
177088.53771005443,-125.0
177088.5453929327,-128.0
177088.55307581098,-125.0
177088.56075868927,-125.0
177088.56844156754,-123.0
177088.57612444583,-123.0
177088.58380732412,-123.0
177088.59149020238,-121.0
177088.59917308067,-121.0
177088.60685595896,-118.0
177088.61453883722,-121.0
177088.62222171552,-121.0
177088.6299045938,-123.0
177088.63758747207,-128.0
177088.64527035036,-135.0
177088.65295322865,-133.0
177088.6606361069,-113.0
177088.6683189852,-92.0
177088.6760018635,-87.0
177088.68368474176,-101.0
177088.69136762005,-116.0
177088.69905049834,-123.0
177088.7067333766,-128.0
177088.7144162549,-130.0
177088.72209913319,-130.0
177088.72978201148,-130.0
177088.73746488974,-130.0
177088.74514776803,-128.0
177088.75283064632,-128.0
177088.76051352458,-130.0
177088.76819640287,-133.0
177088.77587928117,-130.0
177088.78356215943,-140.0
177088.79124503772,-133.0
177088.798927916,106.0
177088.80661079427,602.0
177088.81429367256,789.0
177088.82197655085,326.0
177088.82965942912,-169.0
177088.8373423074,-198.0
177088.8450251857,-113.0
177088.85270806396,-181.0
177088.86039094225,-205.0
177088.86807382054,-171.0
177088.8757566988,-181.0
177088.8834395771,-193.0
177088.8911224554,-184.0
177088.89880533365,-181.0
177088.90648821194,-179.0
177088.91417109023,-169.0
177088.9218539685,-159.0
177088.9295368468,-154.0
177088.93721972508,-152.0
177088.94490260334,-150.0
177088.95258548163,-145.0
177088.96026835992,-138.0
177088.96795123818,-130.0
177088.97563411648,-125.0
177088.98331699477,-116.0
177088.99099987303,-106.0
177088.99868275132,-101.0
177089.0063656296,-94.0
177089.01404850787,-87.0
177089.02173138616,-84.0
177089.02941426446,-79.0
177089.03709714272,-77.0
177089.044780021,-75.0
177089.0524628993,-75.0
177089.0601457776,-75.0
177089.06782865585,-82.0
177089.07551153415,-87.0
177089.08319441244,-96.0
177089.0908772907,-108.0
177089.098560169,-123.0
177089.10624304728,-135.0
177089.11392592554,-147.0
177089.12160880383,-157.0
177089.12929168213,-162.0
177089.1369745604,-164.0
177089.14465743868,-167.0
177089.15234031697,-171.0
177089.16002319523,-169.0
177089.16770607352,-164.0
177089.17538895181,-167.0
177089.18307183008,-167.0
177089.19075470837,-164.0
177089.19843758666,-159.0
177089.20612046492,-154.0
177089.2138033432,-152.0
177089.2214862215,-147.0
177089.22916909977,-145.0
177089.23685197806,-145.0
177089.24453485635,-142.0
177089.2522177346,-140.0
177089.2599006129,-138.0
177089.2675834912,-135.0
177089.27526636946,-138.0
177089.28294924775,-140.0
177089.29063212604,-138.0
177089.2983150043,-138.0
177089.3059978826,-135.0
177089.31368076088,-130.0
177089.32136363914,-133.0
177089.32904651744,-138.0
177089.33672939573,-142.0
177089.344412274,-142.0
177089.35209515228,-135.0
177089.35977803057,-135.0
177089.36746090886,-140.0
177089.37514378713,-140.0
177089.38282666542,-135.0
177089.3905095437,-140.0
177089.39819242197,-147.0
177089.40587530026,-142.0
177089.41355817855,-135.0
177089.4212410568,-138.0
177089.4289239351,-142.0
177089.4366068134,-140.0
177089.44428969166,-133.0
177089.45197256995,-130.0
177089.45965544824,-133.0
177089.4673383265,-133.0
177089.4750212048,-138.0
177089.4827040831,-145.0
177089.49038696135,-142.0
177089.49806983964,-125.0
177089.50575271793,-108.0
177089.5134355962,-101.0
177089.52111847448,-113.0
177089.52880135278,-135.0
177089.53648423104,-145.0
177089.54416710933,-145.0
177089.55184998762,-147.0
177089.55953286588,-142.0
177089.56721574417,-135.0
177089.57489862246,-140.0
177089.58258150073,-145.0
177089.59026437902,-140.0
177089.5979472573,-138.0
177089.60563013557,-140.0
177089.61331301386,-135.0
177089.62099589215,-142.0
177089.62867877042,-145.0
177089.6363616487,62.0
177089.644044527,564.0
177089.65172740526,794.0
177089.65941028355,305.0
177089.66709316184,-232.0
177089.6747760401,-210.0
177089.6824589184,-99.0
177089.6901417967,-191.0
177089.69782467498,-215.0
177089.70550755324,-167.0
177089.71319043153,-181.0
177089.72087330982,-198.0
177089.72855618809,-174.0
177089.73623906638,-162.0
177089.74392194467,-169.0
177089.75160482293,-162.0
177089.75928770122,-147.0
177089.7669705795,-138.0
177089.77465345777,-138.0
177089.78233633607,-133.0
177089.79001921436,-123.0
177089.79770209262,-118.0
177089.8053849709,-118.0
177089.8130678492,-111.0
177089.82075072746,-99.0
177089.82843360575,-82.0
177089.83611648405,-70.0
177089.8437993623,-67.0
177089.8514822406,-65.0
177089.8591651189,-60.0
177089.86684799715,-50.0
177089.87453087544,-43.0
177089.88221375374,-50.0
177089.889896632,-58.0
177089.8975795103,-60.0
177089.90526238858,-58.0
177089.91294526684,-55.0
177089.92062814513,-72.0
177089.92831102342,-96.0
177089.9359939017,-111.0
177089.94367677998,-123.0
177089.95135965827,-140.0
177089.95904253653,-154.0
177089.96672541482,-164.0
177089.9744082931,-169.0
177089.98209117138,-171.0
177089.98977404967,-171.0
177089.99745692796,-171.0
177090.00513980625,-169.0
177090.0128226845,-169.0
177090.0205055628,-167.0
177090.0281884411,-162.0
177090.03587131936,-159.0
177090.04355419765,-152.0
177090.05123707594,-152.0
177090.0589199542,-152.0
177090.0666028325,-145.0
177090.07428571078,-142.0
177090.08196858905,-142.0
177090.08965146734,-140.0
177090.09733434563,-135.0
177090.1050172239,-128.0
177090.11270010218,-128.0
177090.12038298047,-130.0
177090.12806585873,-130.0
177090.13574873703,-130.0
177090.14343161532,-130.0
177090.15111449358,-130.0
177090.15879737187,-130.0
177090.16648025016,-130.0
177090.17416312842,-130.0
177090.18184600672,-130.0
177090.189528885,-125.0
177090.19721176327,-128.0
177090.20489464156,-130.0
177090.21257751985,-125.0
177090.2202603981,-123.0
177090.2279432764,-123.0
177090.2356261547,-125.0
177090.24330903296,-125.0
177090.25099191125,-123.0
177090.25867478954,-121.0
177090.2663576678,-118.0
177090.2740405461,-118.0
177090.28172342438,-118.0
177090.28940630265,-121.0
177090.29708918094,-123.0
177090.30477205923,-128.0
177090.3124549375,-130.0
177090.32013781578,-118.0
177090.32782069407,-96.0
177090.33550357237,-77.0
177090.34318645063,-79.0
177090.35086932892,-101.0
177090.3585522072,-116.0
177090.36623508547,-121.0
177090.37391796376,-121.0
177090.38160084205,-123.0
177090.38928372032,-128.0
177090.3969665986,-130.0
177090.4046494769,-133.0
177090.41233235516,-133.0
177090.42001523345,-133.0
177090.42769811174,-133.0
177090.43538099,-133.0
177090.4430638683,-135.0
177090.4507467466,-152.0
177090.45842962485,-55.0
177090.46611250314,365.0
177090.47379538143,808.0
177090.4814782597,605.0
177090.489161138,-31.0
177090.49684401628,-254.0
177090.50452689454,-118.0
177090.51220977283,-140.0
177090.51989265112,-210.0
177090.52757552938,-174.0
177090.53525840768,-164.0
177090.54294128597,-186.0
177090.55062416423,-169.0
177090.55830704252,-157.0
177090.5659899208,-162.0
177090.57367279907,-157.0
177090.58135567736,-142.0
177090.58903855566,-140.0
177090.59672143392,-135.0
177090.6044043122,-125.0
177090.6120871905,-123.0
177090.61977006876,-123.0
177090.62745294705,-121.0
177090.63513582535,-111.0
177090.64281870364,-101.0
177090.6505015819,-94.0
177090.6581844602,-87.0
177090.66586733848,-77.0
177090.67355021674,-67.0
177090.68123309503,-65.0
177090.68891597333,-60.0
177090.6965988516,-55.0
177090.70428172988,-53.0
177090.71196460817,-55.0
177090.71964748643,-58.0
177090.72733036472,-60.0
177090.73501324301,-65.0
177090.74269612128,-75.0
177090.75037899957,-87.0
177090.75806187786,-101.0
177090.76574475612,-116.0
177090.7734276344,-130.0
177090.7811105127,-142.0
177090.78879339097,-150.0
177090.79647626926,-159.0
177090.80415914755,-162.0
177090.8118420258,-162.0
177090.8195249041,-162.0
177090.8272077824,-162.0
177090.83489066066,-159.0
177090.84257353895,-159.0
177090.85025641724,-154.0
177090.8579392955,-152.0
177090.8656221738,-150.0
177090.87330505208,-147.0
177090.88098793034,-142.0
177090.88867080864,-140.0
177090.89635368693,-140.0
177090.9040365652,-140.0
177090.91171944348,-140.0
177090.91940232177,-138.0
177090.92708520003,-135.0
177090.93476807832,-133.0
177090.94245095662,-130.0
177090.95013383488,-128.0
177090.95781671317,-128.0
177090.96549959146,-128.0
177090.97318246975,-125.0
177090.980865348,-128.0
177090.9885482263,-130.0
177090.9962311046,-130.0
177091.00391398286,-130.0
177091.01159686115,-130.0
177091.01927973944,-130.0
177091.0269626177,-128.0
177091.034645496,-130.0
177091.0423283743,-130.0
177091.05001125255,-128.0
177091.05769413084,-125.0
177091.06537700913,-125.0
177091.0730598874,-128.0
177091.08074276568,-128.0
177091.08842564397,-125.0
177091.09610852224,-123.0
177091.10379140053,-125.0
177091.11147427882,-128.0
177091.11915715708,-128.0
177091.12684003537,-125.0
177091.13452291366,-130.0
177091.14220579193,-140.0
177091.14988867022,-138.0
177091.1575715485,-125.0
177091.16525442677,-106.0
177091.17293730506,-87.0
177091.18062018335,-92.0
177091.18830306162,-111.0
177091.1959859399,-125.0
177091.2036688182,-128.0
177091.21135169646,-130.0
177091.21903457475,-138.0
177091.22671745304,-140.0
177091.2344003313,-135.0
177091.2420832096,-135.0
177091.2497660879,-138.0
177091.25744896615,-140.0
177091.26513184444,-135.0
177091.27281472273,-133.0
177091.28049760102,-140.0
177091.28818047929,-159.0
177091.29586335758,-48.0
177091.30354623587,384.0
177091.31122911413,828.0
177091.31891199242,658.0
177091.3265948707,43.0
177091.33427774897,-237.0
177091.34196062727,-145.0
177091.34964350556,-147.0
177091.35732638382,-222.0
177091.3650092621,-200.0
177091.3726921404,-186.0
177091.38037501866,-205.0
177091.38805789695,-196.0
177091.39574077525,-181.0
177091.4034236535,-181.0
177091.4111065318,-179.0
177091.4187894101,-171.0
177091.42647228835,-167.0
177091.43415516664,-162.0
177091.44183804494,-159.0
177091.4495209232,-152.0
177091.4572038015,-142.0
177091.46488667978,-135.0
177091.47256955804,-128.0
177091.48025243633,-121.0
177091.48793531462,-111.0
177091.4956181929,-101.0
177091.50330107118,-94.0
177091.51098394947,-87.0
177091.51866682773,-79.0
177091.52634970602,-72.0
177091.5340325843,-70.0
177091.54171546258,-65.0
177091.54939834087,-65.0
177091.55708121916,-65.0
177091.56476409742,-67.0
177091.5724469757,-70.0
177091.580129854,-79.0
177091.5878127323,-92.0
177091.59549561056,-108.0
177091.60317848885,-125.0
177091.61086136714,-142.0
177091.6185442454,-152.0
177091.6262271237,-159.0
177091.63391000198,-167.0
177091.64159288025,-169.0
177091.64927575854,-167.0
177091.65695863683,-167.0
177091.6646415151,-167.0
177091.67232439338,-164.0
177091.68000727167,-162.0
177091.68769014993,-159.0
177091.69537302823,-157.0
177091.70305590652,-157.0
177091.71073878478,-152.0
177091.71842166307,-150.0
177091.72610454136,-147.0
177091.73378741962,-145.0
177091.74147029791,-140.0
177091.7491531762,-138.0
177091.75683605447,-138.0
177091.76451893276,-138.0
177091.77220181105,-135.0
177091.7798846893,-133.0
177091.7875675676,-130.0
177091.7952504459,-128.0
177091.80293332416,-130.0
177091.81061620245,-133.0
177091.81829908074,-133.0
177091.825981959,-130.0
177091.8336648373,-130.0
177091.84134771558,-130.0
177091.84903059385,-133.0
177091.85671347214,-135.0
177091.86439635043,-133.0
177091.8720792287,-130.0
177091.87976210698,-130.0
177091.88744498527,-130.0
177091.89512786354,-128.0
177091.90281074183,-128.0
177091.91049362012,-128.0
177091.9181764984,-130.0
177091.92585937667,-133.0
177091.93354225496,-130.0
177091.94122513325,-130.0
177091.94890801152,-130.0
177091.9565908898,-128.0
177091.9642737681,-125.0
177091.97195664636,-125.0
177091.97963952465,-128.0
177091.98732240294,-133.0
