time_lsl,ch1,ch2,ch3,ch4
567028.8515264984,402701.0,434786.0,448745.0,174456.0
567028.8698523905,402323.0,434285.0,448217.0,174464.0
567028.8881782825,401771.0,433617.0,447574.0,174472.0
567028.9065041747,401322.0,432938.0,446873.0,174527.0
567028.9248300667,400822.0,432400.0,446267.0,174512.0
567028.9431559588,400299.0,431709.0,445610.0,174465.0
567028.9614818508,399862.0,431116.0,445067.0,174467.0
567028.9798077429,399393.0,430492.0,444537.0,174504.0
567028.9981336349,399013.0,429998.0,444037.0,174434.0
567029.0164595271,398754.0,429595.0,443616.0,174458.0
567029.0347854191,398532.0,429258.0,443313.0,174493.0
567029.0531113112,398372.0,429029.0,443061.0,174462.0
567029.0714372032,398370.0,428923.0,443070.0,174518.0
567029.0897630953,398300.0,428901.0,443040.0,174496.0
567029.1080889873,398344.0,429014.0,443143.0,174534.0
567029.1264148795,398350.0,429000.0,443132.0,174486.0
567029.1447407715,398446.0,429033.0,443191.0,174496.0
567029.1630666635,398492.0,429195.0,443290.0,174513.0
567029.1813925556,398631.0,429299.0,443383.0,174538.0
567029.1997184476,398716.0,429402.0,443491.0,174453.0
567029.2180443397,398842.0,429537.0,443611.0,174488.0
567029.2363702318,398921.0,429716.0,443769.0,174473.0
567029.2546961239,399032.0,429841.0,443886.0,174461.0
567029.2730220159,399175.0,430064.0,444041.0,174489.0
567029.291347908,399273.0,430300.0,444325.0,174504.0
567029.3096738,399470.0,430437.0,444512.0,174474.0
567029.3279996921,399693.0,430688.0,444776.0,174571.0
567029.3463255842,399870.0,430939.0,444957.0,174541.0
567029.3646514763,399994.0,431102.0,445170.0,174496.0
567029.3829773683,400164.0,431396.0,445403.0,174478.0
567029.4013032604,400371.0,431627.0,445668.0,174532.0
567029.4196291524,400549.0,431812.0,445875.0,174532.0
567029.4379550444,400683.0,432063.0,446017.0,174522.0
567029.4562809366,400855.0,432310.0,446290.0,174482.0
567029.4746068286,401009.0,432506.0,446488.0,174454.0
567029.4929327207,401129.0,432719.0,446739.0,174481.0
567029.5112586127,401315.0,432946.0,446948.0,174456.0
567029.5295845048,401497.0,433138.0,447196.0,174483.0
567029.5479103968,401658.0,433339.0,447433.0,174495.0
567029.566236289,401835.0,433601.0,447662.0,174494.0
567029.584562181,402098.0,433873.0,447916.0,174525.0
567029.6028880731,402251.0,434133.0,448153.0,174447.0
567029.6212139651,402380.0,434374.0,448318.0,174452.0
567029.6395398572,402454.0,434435.0,448360.0,174529.0
567029.6578657492,402314.0,434257.0,448141.0,174482.0
567029.6761916414,401895.0,433800.0,447742.0,174471.0
567029.6945175334,401520.0,433154.0,447158.0,174475.0
567029.7128434255,400982.0,432579.0,446476.0,174515.0
567029.7311693175,400506.0,431882.0,445881.0,174475.0
567029.7494952095,400085.0,431331.0,445414.0,174503.0
567029.7678211017,399657.0,430754.0,444828.0,174507.0
567029.7861469937,399270.0,430187.0,444286.0,174485.0
567029.8044728858,398897.0,429692.0,443824.0,174443.0
567029.8227987778,398504.0,429273.0,443425.0,174425.0
567029.8411246699,398286.0,428929.0,443090.0,174450.0
567029.8594505619,398115.0,428647.0,442879.0,174501.0
567029.8777764541,398072.0,428563.0,442829.0,174476.0
567029.8961023461,398049.0,428564.0,442800.0,174466.0
567029.9144282382,398054.0,428575.0,442838.0,174423.0
567029.9327541302,398061.0,428596.0,442923.0,174443.0
567029.9510800223,398121.0,428686.0,442966.0,174462.0
567029.9694059143,398138.0,428743.0,443051.0,174495.0
567029.9877318065,398137.0,428733.0,443097.0,174495.0
567030.0060576985,398179.0,428747.0,443138.0,174462.0
567030.0243835906,398264.0,428854.0,443269.0,174418.0
567030.0427094826,398390.0,429049.0,443394.0,174441.0
567030.0610353746,398473.0,429215.0,443512.0,174406.0
567030.0793612667,398586.0,429419.0,443667.0,174435.0
567030.0976871589,398757.0,429608.0,443861.0,174462.0
567030.1160130509,398887.0,429816.0,444008.0,174454.0
567030.1343389429,399075.0,429978.0,444196.0,174475.0
567030.152664835,399138.0,430176.0,444415.0,174437.0
567030.170990727,399309.0,430419.0,444583.0,174427.0
567030.1893166191,399465.0,430650.0,444820.0,174403.0
567030.2076425112,399548.0,430842.0,445042.0,174409.0
567030.2259684033,399781.0,431136.0,445226.0,174415.0
567030.2442942953,399888.0,431241.0,445448.0,174405.0
567030.2626201874,400090.0,431507.0,445649.0,174420.0
567030.2809460794,400276.0,431784.0,445938.0,174417.0
567030.2992719715,400517.0,432050.0,446127.0,174453.0
567030.3175978636,400657.0,432315.0,446417.0,174467.0
567030.3359237557,400853.0,432564.0,446652.0,174483.0
567030.3542496477,401004.0,432810.0,446808.0,174415.0
567030.3725755397,401190.0,433092.0,447128.0,174453.0
567030.3909014318,401362.0,433339.0,447321.0,174486.0
567030.4092273238,401448.0,433532.0,447511.0,174437.0
567030.427553216,401431.0,433490.0,447472.0,174429.0
567030.445879108,401157.0,433143.0,447103.0,174417.0
567030.4642050001,400801.0,432699.0,446658.0,174424.0
567030.4825308921,400377.0,432113.0,446084.0,174410.0
567030.5008567842,399966.0,431551.0,445527.0,174494.0
567030.5191826763,399456.0,430998.0,445003.0,174410.0
567030.5375085684,399112.0,430480.0,444593.0,174440.0
567030.5558344604,398777.0,429967.0,444041.0,174492.0
567030.5741603525,398454.0,429613.0,443676.0,174468.0
567030.5924862445,398150.0,429272.0,443353.0,174407.0
567030.6108121366,397970.0,428911.0,443041.0,174461.0
567030.6291380287,397791.0,428747.0,442884.0,174412.0
567030.6474639208,397723.0,428678.0,442797.0,174439.0
567030.6657898128,397810.0,428744.0,442845.0,174418.0
567030.6841157048,397872.0,428919.0,442971.0,174452.0
567030.7024415969,397937.0,428969.0,443064.0,174435.0
567030.7207674889,398035.0,429082.0,443178.0,174379.0
567030.7390933811,398158.0,429256.0,443323.0,174437.0
567030.7574192731,398232.0,429323.0,443400.0,174443.0
567030.7757451652,398359.0,429516.0,443608.0,174450.0
567030.7940710572,398441.0,429646.0,443691.0,174443.0
567030.8123969493,398582.0,429848.0,443904.0,174435.0
567030.8307228413,398712.0,429983.0,444082.0,174458.0
567030.8490487335,398897.0,430257.0,444312.0,174419.0
567030.8673746255,399076.0,430444.0,444583.0,174420.0
567030.8857005176,399221.0,430718.0,444730.0,174435.0
567030.9040264096,399396.0,430978.0,444960.0,174434.0
567030.9223523017,399576.0,431146.0,445213.0,174442.0
567030.9406781937,399776.0,431487.0,445544.0,174471.0
567030.9590040859,399940.0,431715.0,445702.0,174488.0
567030.9773299779,400100.0,431951.0,445947.0,174417.0
567030.99565587,400298.0,432242.0,446174.0,174386.0
567031.013981762,400475.0,432506.0,446493.0,174472.0
567031.032307654,400729.0,432803.0,446745.0,174526.0
567031.0506335461,400930.0,432970.0,446935.0,174504.0
567031.0689594382,401092.0,433262.0,447227.0,174508.0
567031.0872853303,401278.0,433525.0,447487.0,174529.0
567031.1056112223,401420.0,433724.0,447686.0,174500.0
567031.1239371144,401670.0,433982.0,447929.0,174503.0
567031.1422630064,401744.0,434193.0,448059.0,174460.0
567031.1605888985,401985.0,434471.0,448387.0,174443.0
567031.1789147906,402198.0,434827.0,448628.0,174472.0
567031.1972406827,402406.0,435034.0,448937.0,174472.0
567031.2155665747,402534.0,435202.0,449103.0,174490.0
567031.2338924668,402461.0,435173.0,449010.0,174451.0
567031.2522183588,402204.0,434820.0,448626.0,174458.0
567031.2705442508,401733.0,434229.0,448087.0,174453.0
567031.288870143,401306.0,433599.0,447502.0,174472.0
567031.307196035,400847.0,432949.0,446817.0,174474.0
567031.3255219271,400295.0,432346.0,446205.0,174474.0
567031.3438478191,399928.0,431771.0,445745.0,174473.0
567031.3621737112,399423.0,431184.0,445197.0,174456.0
567031.3804996033,398964.0,430569.0,444627.0,174440.0
567031.3988254954,398609.0,430057.0,444144.0,174387.0
567031.4171513874,398273.0,429582.0,443756.0,174419.0
567031.4354772795,398039.0,429264.0,443486.0,174419.0
567031.4538031715,397909.0,429037.0,443274.0,174436.0
567031.4721290636,397835.0,429012.0,443236.0,174455.0
567031.4904549557,397687.0,428937.0,443188.0,174397.0
567031.5087808478,397775.0,428956.0,443223.0,174437.0
567031.5271067398,397931.0,428985.0,443365.0,174495.0
567031.5454326319,397967.0,429050.0,443439.0,174423.0
567031.5637585239,398020.0,429098.0,443509.0,174424.0
567031.582084416,398106.0,429235.0,443613.0,174474.0
567031.6004103081,398119.0,429258.0,443637.0,174401.0
567031.6187362002,398180.0,429368.0,443795.0,174401.0
567031.6370620922,398336.0,429542.0,443903.0,174459.0
567031.6553879842,398560.0,429686.0,444114.0,174483.0
567031.6737138763,398637.0,429881.0,444239.0,174499.0
567031.6920397683,398786.0,430079.0,444469.0,174489.0
567031.7103656605,398849.0,430285.0,444639.0,174466.0
567031.7286915525,399045.0,430470.0,444799.0,174427.0
567031.7470174446,399235.0,430761.0,445062.0,174486.0
567031.7653433366,399402.0,430995.0,445265.0,174423.0
567031.7836692287,399598.0,431272.0,445547.0,174459.0
567031.8019951207,399694.0,431451.0,445702.0,174363.0
567031.8203210129,399916.0,431777.0,446020.0,174470.0
567031.8386469049,400162.0,432091.0,446296.0,174502.0
567031.856972797,400376.0,432304.0,446532.0,174456.0
567031.875298689,400542.0,432532.0,446731.0,174485.0
567031.893624581,400727.0,432770.0,447014.0,174442.0
567031.9119504731,400920.0,433020.0,447209.0,174396.0
567031.9302763653,401037.0,433210.0,447393.0,174425.0
567031.9486022573,401270.0,433513.0,447669.0,174440.0
567031.9669281493,401481.0,433753.0,448000.0,174482.0
567031.9852540414,401639.0,434012.0,448203.0,174495.0
567032.0035799334,401848.0,434241.0,448446.0,174507.0
567032.0219058255,401942.0,434379.0,448509.0,174580.0
567032.0402317176,401800.0,434169.0,448278.0,174640.0
567032.0585576097,401421.0,433605.0,447810.0,174654.0
567032.0768835017,400957.0,432993.0,447234.0,174607.0
567032.0952093938,400457.0,432366.0,446619.0,174679.0
567032.1135352858,399915.0,431691.0,445932.0,174622.0
567032.1318611779,399412.0,431070.0,445369.0,174591.0
567032.15018707,398985.0,430411.0,444824.0,174659.0
567032.1685129621,398533.0,429808.0,444264.0,174608.0
567032.1868388541,398149.0,429283.0,443857.0,174596.0
567032.2051647461,397713.0,428682.0,443369.0,174530.0
567032.2234906382,397460.0,428303.0,443059.0,174507.0
567032.2418165304,397208.0,428055.0,442731.0,174486.0
567032.2601424224,397141.0,427907.0,442574.0,174461.0
567032.2784683144,397068.0,427869.0,442517.0,174429.0
567032.2967942065,397198.0,427925.0,442679.0,174496.0
567032.3151200985,397215.0,427930.0,442670.0,174466.0
567032.3334459906,397324.0,428038.0,442737.0,174494.0
567032.3517718827,397381.0,428051.0,442871.0,174513.0
567032.3700977748,397377.0,428016.0,442848.0,174507.0
567032.3884236668,397490.0,428112.0,442934.0,174507.0
567032.4067495589,397481.0,428218.0,443005.0,174469.0
567032.4250754509,397517.0,428362.0,443138.0,174504.0
567032.443401343,397615.0,428439.0,443257.0,174469.0
567032.4617272351,397694.0,428555.0,443383.0,174454.0
567032.4800531272,397893.0,428742.0,443552.0,174496.0
567032.4983790192,397916.0,428868.0,443703.0,174459.0
567032.5167049112,398057.0,429006.0,443903.0,174478.0
567032.5350308033,398240.0,429254.0,444074.0,174525.0
567032.5533566953,398351.0,429443.0,444280.0,174487.0
567032.5716825875,398562.0,429566.0,444472.0,174453.0
567032.5900084795,398639.0,429807.0,444639.0,174459.0
567032.6083343716,398778.0,430018.0,444850.0,174443.0
567032.6266602636,398882.0,430207.0,445010.0,174481.0
567032.6449861557,399092.0,430365.0,445213.0,174509.0
567032.6633120477,399223.0,430591.0,445429.0,174457.0
567032.6816379399,399334.0,430732.0,445596.0,174447.0
567032.6999638319,399507.0,430882.0,445750.0,174457.0
567032.718289724,399615.0,431056.0,445935.0,174477.0
567032.736615616,399760.0,431266.0,446124.0,174455.0
567032.754941508,399952.0,431514.0,446403.0,174451.0
567032.7732674001,400084.0,431702.0,446640.0,174482.0
567032.7915932923,400258.0,431947.0,446845.0,174465.0
567032.8099191843,400338.0,432167.0,446997.0,174451.0
567032.8282450764,400454.0,432115.0,446983.0,174550.0
567032.8465709684,400213.0,431762.0,446687.0,174452.0
567032.8648968604,399826.0,431273.0,446231.0,174507.0
567032.8832227525,399336.0,430590.0,445610.0,174476.0
567032.9015486446,398841.0,429920.0,444941.0,174500.0
567032.9198745367,398328.0,429228.0,444314.0,174462.0
567032.9382004287,397829.0,428641.0,443771.0,174484.0
567032.9565263208,397382.0,428054.0,443162.0,174442.0
567032.9748522128,396915.0,427453.0,442606.0,174461.0
567032.993178105,396570.0,426961.0,442101.0,174519.0
567033.011503997,396169.0,426421.0,441658.0,174505.0
567033.0298298891,395935.0,426021.0,441343.0,174455.0
567033.0481557811,395748.0,425787.0,441096.0,174441.0
567033.0664816732,395641.0,425678.0,441028.0,174460.0
567033.0848075652,395659.0,425726.0,441048.0,174477.0
567033.1031334574,395647.0,425653.0,441070.0,174425.0
567033.1214593494,395668.0,425683.0,441104.0,174524.0
567033.1397852415,395669.0,425614.0,441137.0,174466.0
567033.1581111335,395758.0,425696.0,441182.0,174505.0
567033.1764370255,395778.0,425761.0,441208.0,174468.0
567033.1947629176,395846.0,425829.0,441272.0,174467.0
567033.2130888097,395809.0,425858.0,441328.0,174386.0
567033.2314147018,395882.0,425938.0,441406.0,174395.0
567033.2497405938,395995.0,426109.0,441601.0,174434.0
567033.2680664859,396178.0,426326.0,441768.0,174496.0
567033.2863923779,396264.0,426461.0,441852.0,174426.0
567033.30471827,396374.0,426541.0,441995.0,174447.0
567033.3230441621,396418.0,426702.0,442168.0,174389.0
567033.3413700542,396499.0,426840.0,442326.0,174427.0
567033.3596959462,396625.0,427028.0,442530.0,174457.0
567033.3780218383,396683.0,427072.0,442589.0,174416.0
567033.3963477303,396873.0,427334.0,442812.0,174484.0
567033.4146736223,397005.0,427451.0,442933.0,174462.0
567033.4329995145,397147.0,427671.0,443133.0,174437.0
567033.4513254066,397311.0,427899.0,443329.0,174452.0
567033.4696512986,397417.0,428051.0,443503.0,174482.0
567033.4879771906,397609.0,428345.0,443739.0,174434.0
567033.5063030827,397724.0,428518.0,443884.0,174385.0
567033.5246289747,397886.0,428806.0,444097.0,174416.0
567033.5429548669,397995.0,428932.0,444278.0,174404.0
567033.5612807589,397953.0,428819.0,444224.0,174395.0
567033.579606651,397650.0,428463.0,443917.0,174393.0
567033.597932543,397323.0,428013.0,443407.0,174437.0
567033.6162584351,396851.0,427457.0,442817.0,174438.0
567033.6345843271,396425.0,426883.0,442266.0,174423.0
567033.6529102193,396030.0,426289.0,441711.0,174417.0
567033.6712361113,395704.0,425803.0,441265.0,174442.0
567033.6895620034,395305.0,425307.0,440802.0,174489.0
567033.7078878954,394981.0,424911.0,440363.0,174473.0
567033.7262137874,394704.0,424550.0,440028.0,174474.0
567033.7445396795,394426.0,424186.0,439619.0,174392.0
567033.7628655717,394297.0,424041.0,439554.0,174426.0
567033.7811914637,394323.0,423986.0,439531.0,174464.0
567033.7995173557,394304.0,424016.0,439574.0,174435.0
567033.8178432478,394328.0,424111.0,439633.0,174422.0
567033.8361691398,394379.0,424211.0,439723.0,174415.0
567033.854495032,394426.0,424272.0,439828.0,174380.0
567033.872820924,394572.0,424427.0,439935.0,174393.0
567033.8911468161,394695.0,424590.0,440088.0,174407.0
567033.9094727081,394789.0,424703.0,440239.0,174418.0
567033.9277986002,394851.0,424862.0,440354.0,174408.0
567033.9461244922,394989.0,425072.0,440554.0,174413.0
567033.9644503844,395154.0,425231.0,440678.0,174450.0
567033.9827762764,395253.0,425441.0,440811.0,174432.0
567034.0011021685,395420.0,425671.0,441034.0,174460.0
567034.0194280605,395646.0,425954.0,441300.0,174474.0
567034.0377539526,395802.0,426177.0,441499.0,174398.0
567034.0560798446,395997.0,426391.0,441729.0,174425.0
567034.0744057368,396166.0,426639.0,441938.0,174386.0
567034.0927316288,396337.0,426925.0,442251.0,174464.0
567034.1110575208,396536.0,427151.0,442510.0,174468.0
567034.1293834129,396740.0,427408.0,442767.0,174472.0
567034.1477093049,396904.0,427621.0,442983.0,174437.0
567034.166035197,397120.0,427959.0,443179.0,174438.0
567034.1843610891,397303.0,428231.0,443399.0,174471.0
567034.2026869812,397460.0,428431.0,443685.0,174437.0
567034.2210128732,397662.0,428655.0,443920.0,174454.0
567034.2393387653,397813.0,428926.0,444139.0,174491.0
567034.2576646573,397988.0,429196.0,444475.0,174529.0
567034.2759905494,398212.0,429541.0,444699.0,174460.0
567034.2943164415,398439.0,429813.0,444964.0,174421.0
567034.3126423336,398517.0,429911.0,445037.0,174458.0
567034.3309682256,398414.0,429796.0,444936.0,174488.0
567034.3492941177,398096.0,429384.0,444524.0,174510.0
567034.3676200097,397619.0,428859.0,443888.0,174475.0
567034.3859459017,397228.0,428226.0,443358.0,174555.0
567034.4042717939,396675.0,427591.0,442776.0,174502.0
567034.422597686,396189.0,426934.0,442120.0,174471.0
567034.440923578,395732.0,426310.0,441514.0,174475.0
567034.45924947,395284.0,425721.0,440952.0,174449.0
567034.4775753621,394929.0,425268.0,440531.0,174486.0
567034.4959012541,394582.0,424774.0,440067.0,174483.0
567034.5142271463,394264.0,424401.0,439730.0,174483.0
567034.5325530383,394059.0,424179.0,439504.0,174452.0
567034.5508789304,394030.0,424089.0,439459.0,174440.0
567034.5692048224,394010.0,424114.0,439471.0,174434.0
567034.5875307145,394121.0,424192.0,439615.0,174474.0
567034.6058566066,394169.0,424271.0,439656.0,174452.0
567034.6241824987,394301.0,424488.0,439754.0,174470.0
567034.6425083907,394390.0,424573.0,439911.0,174418.0
567034.6608342828,394521.0,424717.0,440022.0,174499.0
567034.6791601748,394689.0,424904.0,440252.0,174474.0
567034.6974860668,394747.0,425083.0,440354.0,174442.0
567034.715811959,394906.0,425304.0,440596.0,174439.0
567034.734137851,395086.0,425552.0,440877.0,174533.0
567034.7524637431,395296.0,425778.0,441042.0,174482.0
567034.7707896351,395429.0,426056.0,441261.0,174490.0
567034.7891155272,395630.0,426231.0,441427.0,174448.0
567034.8074414192,395830.0,426560.0,441742.0,174509.0
567034.8257673114,396027.0,426835.0,441969.0,174499.0
567034.8440932034,396217.0,427094.0,442229.0,174489.0
567034.8624190955,396416.0,427269.0,442498.0,174449.0
567034.8807449875,396591.0,427599.0,442779.0,174417.0
567034.8990708796,396789.0,427872.0,443070.0,174470.0
567034.9173967716,396953.0,428115.0,443349.0,174442.0
567034.9357226638,397174.0,428372.0,443539.0,174479.0
567034.9540485558,397332.0,428646.0,443810.0,174482.0
567034.9723744479,397523.0,428932.0,444027.0,174485.0
567034.9907003399,397717.0,429221.0,444335.0,174441.0
567035.009026232,397903.0,429497.0,444612.0,174451.0
567035.027352124,398144.0,429756.0,444878.0,174425.0
567035.0456780161,398327.0,430011.0,445092.0,174401.0
567035.0640039082,398549.0,430372.0,445401.0,174414.0
567035.0823298002,398653.0,430534.0,445560.0,174387.0
567035.1006556923,398612.0,430411.0,445501.0,174491.0
567035.1189815843,398294.0,430086.0,445123.0,174496.0
567035.1373074764,397901.0,429574.0,444568.0,174526.0
567035.1556333685,397369.0,428907.0,443941.0,174366.0
567035.1739592606,396832.0,428263.0,443347.0,174420.0
567035.1922851526,396390.0,427572.0,442735.0,174509.0
567035.2106110447,395834.0,426906.0,442075.0,174490.0
567035.2289369367,395402.0,426276.0,441484.0,174468.0
567035.2472628288,394946.0,425782.0,440982.0,174464.0
567035.2655887209,394543.0,425211.0,440491.0,174430.0
567035.283914613,394251.0,424900.0,440131.0,174486.0
567035.302240505,394063.0,424546.0,439862.0,174427.0
567035.320566397,393958.0,424426.0,439769.0,174453.0
567035.3388922891,393905.0,424389.0,439708.0,174404.0
567035.3572181811,393963.0,424502.0,439857.0,174442.0
567035.3755440733,394079.0,424603.0,439959.0,174425.0
567035.3938699653,394153.0,424719.0,440037.0,174403.0
567035.4121958574,394294.0,424875.0,440273.0,174473.0
567035.4305217494,394387.0,424983.0,440367.0,174437.0
567035.4488476415,394560.0,425156.0,440548.0,174462.0
567035.4671735336,394687.0,425336.0,440701.0,174443.0
567035.4854994257,394898.0,425591.0,440858.0,174459.0
567035.5038253177,395024.0,425762.0,441066.0,174444.0
567035.5221512098,395190.0,426067.0,441360.0,174469.0
567035.5404771018,395304.0,426218.0,441554.0,174390.0
567035.5588029939,395502.0,426600.0,441803.0,174404.0
567035.577128886,395651.0,426849.0,442069.0,174442.0
567035.595454778,395962.0,427133.0,442345.0,174412.0
567035.6137806701,396174.0,427383.0,442612.0,174487.0
567035.6321065621,396347.0,427668.0,442888.0,174443.0
567035.6504324542,396524.0,427933.0,443132.0,174451.0
567035.6687583462,396768.0,428309.0,443467.0,174432.0
567035.6870842384,397012.0,428582.0,443773.0,174485.0
567035.7054101304,397172.0,428900.0,444055.0,174505.0
567035.7237360225,397404.0,429221.0,444373.0,174532.0
567035.7420619145,397552.0,429433.0,444599.0,174477.0
567035.7603878066,397800.0,429699.0,444820.0,174427.0
567035.7787136986,398058.0,430006.0,445120.0,174507.0
567035.7970395908,398215.0,430254.0,445367.0,174483.0
567035.8153654828,398488.0,430580.0,445731.0,174537.0
567035.8336913749,398646.0,430890.0,446024.0,174456.0
567035.8520172669,398822.0,431145.0,446340.0,174444.0
567035.870343159,398907.0,431358.0,446549.0,174503.0
567035.888669051,399008.0,431323.0,446451.0,174478.0
567035.9069949432,398796.0,431029.0,446154.0,174465.0
567035.9253208352,398423.0,430523.0,445623.0,174527.0
567035.9436467272,397960.0,429908.0,445053.0,174413.0
567035.9619726193,397436.0,429321.0,444436.0,174437.0
567035.9802985113,396960.0,428690.0,443878.0,174519.0
567035.9986244034,396455.0,428039.0,443240.0,174489.0
567036.0169502955,396021.0,427457.0,442729.0,174496.0
567036.0352761876,395608.0,426862.0,442237.0,174555.0
567036.0536020796,395205.0,426423.0,441776.0,174576.0
567036.0719279717,394903.0,426080.0,441436.0,174649.0
567036.0902538637,394668.0,425824.0,441203.0,174671.0
567036.1085797558,394560.0,425624.0,441063.0,174603.0
567036.1269056479,394601.0,425704.0,441112.0,174660.0
567036.14523154,394623.0,425795.0,441232.0,174558.0
567036.163557432,394769.0,425952.0,441423.0,174498.0
567036.181883324,394930.0,426118.0,441643.0,174589.0
567036.2002092161,394998.0,426293.0,441722.0,174488.0
567036.2185351081,395085.0,426454.0,441862.0,174448.0
567036.2368610003,395288.0,426620.0,442108.0,174482.0
567036.2551868923,395346.0,426855.0,442273.0,174430.0
567036.2735127844,395573.0,427076.0,442511.0,174468.0
567036.2918386764,395755.0,427275.0,442713.0,174471.0
567036.3101645685,395906.0,427618.0,443012.0,174496.0
567036.3284904606,396084.0,427830.0,443170.0,174479.0
567036.3468163527,396313.0,428084.0,443503.0,174476.0
567036.3651422447,396534.0,428403.0,443750.0,174451.0
567036.3834681368,396715.0,428722.0,444011.0,174479.0
567036.4017940288,396948.0,428997.0,444331.0,174422.0
567036.4201199209,397125.0,429250.0,444619.0,174460.0
567036.438445813,397296.0,429536.0,444926.0,174498.0
567036.4567717051,397531.0,429883.0,445187.0,174453.0
567036.4750975971,397758.0,430218.0,445525.0,174456.0
567036.4934234892,398031.0,430536.0,445830.0,174546.0
567036.5117493812,398148.0,430846.0,446053.0,174443.0
567036.5300752732,398428.0,431135.0,446364.0,174496.0
567036.5484011654,398592.0,431383.0,446553.0,174452.0
567036.5667270574,398803.0,431626.0,446842.0,174443.0
567036.5850529495,399028.0,432017.0,447228.0,174499.0
567036.6033788415,399173.0,432216.0,447476.0,174471.0
567036.6217047336,399373.0,432564.0,447755.0,174471.0
567036.6400306256,399657.0,432889.0,448169.0,174458.0
567036.6583565178,399885.0,433165.0,448426.0,174457.0
567036.6766824098,399980.0,433330.0,448577.0,174402.0
567036.6950083019,399895.0,433271.0,448535.0,174492.0
567036.7133341939,399642.0,432933.0,448197.0,174469.0
567036.731660086,399231.0,432483.0,447669.0,174469.0
567036.749985978,398731.0,431841.0,447127.0,174488.0
567036.7683118702,398236.0,431178.0,446557.0,174472.0
567036.7866377622,397712.0,430562.0,445942.0,174491.0
567036.8049636543,397293.0,429897.0,445332.0,174526.0
567036.8232895463,396790.0,429316.0,444776.0,174473.0
567036.8416154383,396396.0,428738.0,444209.0,174482.0
567036.8599413304,396020.0,428242.0,443857.0,174518.0
567036.8782672225,395684.0,427821.0,443546.0,174492.0
567036.8965931146,395399.0,427530.0,443256.0,174487.0
567036.9149190066,395297.0,427367.0,443082.0,174465.0
567036.9332448987,395359.0,427351.0,443075.0,174471.0
567036.9515707907,395394.0,427457.0,443215.0,174456.0
567036.9698966828,395455.0,427552.0,443338.0,174487.0
567036.9882225749,395545.0,427661.0,443462.0,174447.0
567037.006548467,395696.0,427774.0,443625.0,174511.0
567037.024874359,395776.0,427920.0,443711.0,174505.0
567037.0432002511,395816.0,428064.0,443932.0,174468.0
567037.0615261431,395984.0,428245.0,444138.0,174439.0
567037.0798520353,396054.0,428443.0,444268.0,174454.0
567037.0981779273,396233.0,428585.0,444454.0,174460.0
567037.1165038194,396390.0,428733.0,444591.0,174432.0
567037.1348297114,396558.0,428965.0,444806.0,174466.0
567037.1531556034,396733.0,429168.0,445077.0,174521.0
567037.1714814955,396987.0,429469.0,445346.0,174486.0
567037.1898073877,397153.0,429674.0,445571.0,174465.0
567037.2081332797,397288.0,429934.0,445788.0,174501.0
567037.2264591717,397437.0,430211.0,446019.0,174499.0
567037.2447850638,397655.0,430394.0,446278.0,174452.0
567037.2631109558,397752.0,430694.0,446536.0,174488.0
567037.2814368479,397989.0,430925.0,446734.0,174477.0
567037.29976274,398194.0,431220.0,447024.0,174518.0
567037.3180886321,398334.0,431425.0,447233.0,174516.0
567037.3364145241,398484.0,431600.0,447479.0,174500.0
567037.3547404162,398627.0,431896.0,447708.0,174474.0
567037.3730663082,398825.0,432164.0,447960.0,174502.0
567037.3913922003,398990.0,432357.0,448209.0,174500.0
567037.4097180924,399146.0,432546.0,448421.0,174461.0
567037.4280439845,399378.0,432892.0,448749.0,174465.0
567037.4463698765,399569.0,433101.0,449000.0,174448.0
567037.4646957685,399759.0,433390.0,449207.0,174510.0
567037.4830216606,399905.0,433585.0,449404.0,174490.0
567037.5013475526,399868.0,433583.0,449377.0,174508.0
567037.5196734448,399654.0,433320.0,449114.0,174515.0
567037.5379993368,399211.0,432770.0,448647.0,174477.0
567037.5563252289,398711.0,432161.0,448023.0,174486.0
567037.5746511209,398239.0,431550.0,447453.0,174484.0
567037.592977013,397780.0,430969.0,446924.0,174487.0
567037.611302905,397332.0,430369.0,446320.0,174486.0
567037.6296287972,396888.0,429748.0,445760.0,174429.0
567037.6479546892,396513.0,429228.0,445338.0,174473.0
567037.6662805813,396140.0,428706.0,444873.0,174433.0
567037.6846064733,395825.0,428235.0,444515.0,174415.0
567037.7029323654,395623.0,428027.0,444264.0,174473.0
567037.7212582574,395463.0,427862.0,444138.0,174404.0
567037.7395841496,395545.0,427853.0,444185.0,174396.0
567037.7579100416,395591.0,427916.0,444332.0,174466.0
567037.7762359336,395694.0,428092.0,444431.0,174464.0
567037.7945618257,395767.0,428172.0,444581.0,174467.0
567037.8128877177,395867.0,428243.0,444700.0,174510.0
567037.8312136098,395958.0,428384.0,444829.0,174501.0
567037.8495395019,396004.0,428437.0,444849.0,174424.0
567037.867865394,396062.0,428586.0,444982.0,174406.0
567037.886191286,396252.0,428773.0,445160.0,174387.0
567037.9045171781,396387.0,428948.0,445341.0,174447.0
567037.9228430701,396508.0,429128.0,445503.0,174443.0
567037.9411689623,396688.0,429379.0,445736.0,174472.0
567037.9594948543,396818.0,429543.0,445914.0,174452.0
567037.9778207464,397025.0,429771.0,446152.0,174490.0
567037.9961466384,397100.0,430004.0,446372.0,174489.0
567038.0144725305,397300.0,430304.0,446617.0,174430.0
567038.0327984225,397493.0,430558.0,446872.0,174404.0
567038.0511243147,397681.0,430849.0,447166.0,174441.0
567038.0694502067,397922.0,431020.0,447420.0,174427.0
567038.0877760987,398095.0,431297.0,447607.0,174434.0
567038.1061019908,398291.0,431558.0,447836.0,174393.0
567038.1244278828,398443.0,431777.0,448106.0,174404.0
567038.1427537749,398662.0,432051.0,448343.0,174421.0
567038.161079667,398829.0,432354.0,448635.0,174454.0
567038.1794055591,398953.0,432565.0,448814.0,174425.0
567038.1977314511,399226.0,432832.0,449137.0,174464.0
567038.2160573432,399416.0,433124.0,449404.0,174479.0
567038.2343832352,399627.0,433457.0,449660.0,174513.0
567038.2527091273,399833.0,433679.0,449879.0,174403.0
567038.2710350194,399946.0,433837.0,450045.0,174392.0
567038.2893609115,399870.0,433772.0,449993.0,174465.0
567038.3076868035,399627.0,433464.0,449608.0,174434.0
567038.3260126956,399267.0,432979.0,449130.0,174432.0
567038.3443385876,398802.0,432395.0,448621.0,174447.0
567038.3626644796,398330.0,431842.0,448021.0,174437.0
567038.3809903718,397793.0,431138.0,447415.0,174432.0
567038.3993162639,397372.0,430563.0,446913.0,174399.0
567038.4176421559,397028.0,430044.0,446449.0,174449.0
567038.4359680479,396679.0,429588.0,445982.0,174476.0
567038.45429394,396356.0,429161.0,445593.0,174472.0
567038.472619832,396099.0,428753.0,445316.0,174452.0
567038.4909457242,395868.0,428508.0,445016.0,174422.0
567038.5092716162,395852.0,428397.0,444963.0,174439.0
567038.5275975083,395937.0,428445.0,445097.0,174432.0
567038.5459234003,396079.0,428587.0,445225.0,174443.0
567038.5642492924,396162.0,428654.0,445304.0,174363.0
567038.5825751844,396320.0,428842.0,445438.0,174437.0
567038.6009010766,396409.0,428985.0,445629.0,174430.0
567038.6192269686,396526.0,429158.0,445750.0,174439.0
567038.6375528607,396664.0,429305.0,445987.0,174458.0
567038.6558787527,396859.0,429492.0,446140.0,174471.0
567038.6742046447,397008.0,429732.0,446290.0,174434.0
567038.6925305368,397186.0,429941.0,446496.0,174455.0
567038.710856429,397409.0,430168.0,446753.0,174444.0
567038.729182321,397560.0,430386.0,446924.0,174447.0
567038.747508213,397785.0,430662.0,447269.0,174458.0
567038.7658341051,397973.0,430940.0,447467.0,174444.0
567038.7841599971,398134.0,431110.0,447675.0,174438.0
567038.8024858893,398352.0,431448.0,448011.0,174425.0
567038.8208117813,398574.0,431723.0,448279.0,174465.0
567038.8391376734,398801.0,432016.0,448534.0,174498.0
567038.8574635654,399035.0,432284.0,448814.0,174477.0
567038.8757894575,399275.0,432548.0,449099.0,174465.0
567038.8941153495,399508.0,432892.0,449420.0,174508.0
567038.9124412417,399742.0,433126.0,449688.0,174457.0
567038.9307671337,399902.0,433433.0,449916.0,174491.0
567038.9490930258,400155.0,433751.0,450174.0,174511.0
567038.9674189178,400312.0,433976.0,450459.0,174478.0
567038.9857448098,400536.0,434248.0,450716.0,174500.0
567039.0040707019,400714.0,434506.0,450938.0,174484.0
567039.022396594,400971.0,434803.0,451242.0,174501.0
567039.0407224861,401170.0,435155.0,451501.0,174469.0
567039.0590483781,401395.0,435444.0,451749.0,174486.0
567039.0773742702,401647.0,435746.0,452092.0,174512.0
567039.0957001622,401827.0,435933.0,452303.0,174478.0
567039.1140260543,401841.0,435991.0,452380.0,174502.0
567039.1323519464,401693.0,435736.0,452070.0,174509.0
567039.1506778385,401294.0,435253.0,451599.0,174500.0
567039.1690037305,400856.0,434680.0,450976.0,174513.0
567039.1873296226,400314.0,433982.0,450331.0,174505.0
567039.2056555146,399720.0,433159.0,449573.0,174467.0
567039.2239814067,399213.0,432432.0,448931.0,174475.0
567039.2423072988,398694.0,431747.0,448206.0,174489.0
567039.2606331909,398194.0,431081.0,447545.0,174498.0
567039.2789590829,397679.0,430404.0,446914.0,174493.0
567039.297284975,397391.0,429843.0,446343.0,174537.0
567039.315610867,397062.0,429409.0,445926.0,174535.0
567039.333936759,396781.0,429027.0,445579.0,174520.0
567039.3522626512,396737.0,428812.0,445426.0,174523.0
567039.3705885432,396757.0,428756.0,445393.0,174543.0
567039.3889144353,396795.0,428827.0,445421.0,174534.0
567039.4072403273,396851.0,428875.0,445424.0,174487.0
567039.4255662194,396981.0,428971.0,445613.0,174523.0
567039.4438921114,397056.0,429067.0,445667.0,174492.0
567039.4622180036,397172.0,429178.0,445737.0,174554.0
567039.4805438956,397277.0,429352.0,445824.0,174566.0
567039.4988697877,397417.0,429418.0,445947.0,174546.0
567039.5171956797,397571.0,429567.0,446119.0,174578.0
567039.5355215718,397663.0,429749.0,446215.0,174519.0
567039.5538474639,397858.0,429957.0,446391.0,174520.0
567039.572173356,397960.0,430196.0,446499.0,174536.0
567039.590499248,398140.0,430395.0,446728.0,174442.0
567039.60882514,398265.0,430538.0,446889.0,174496.0
567039.6271510321,398514.0,430831.0,447153.0,174485.0
567039.6454769241,398663.0,431079.0,447407.0,174420.0
567039.6638028163,398884.0,431346.0,447627.0,174464.0
567039.6821287083,399026.0,431542.0,447815.0,174449.0
567039.7004546004,399283.0,431848.0,448085.0,174440.0
567039.7187804924,399467.0,432122.0,448311.0,174455.0
567039.7371063845,399646.0,432391.0,448601.0,174479.0
567039.7554322765,399871.0,432632.0,448807.0,174486.0
567039.7737581687,400092.0,432890.0,449063.0,174566.0
567039.7920840607,400284.0,433156.0,449296.0,174509.0
567039.8104099528,400486.0,433405.0,449603.0,174533.0
567039.8287358448,400656.0,433619.0,449743.0,174490.0
567039.8470617369,400863.0,433914.0,450013.0,174512.0
567039.8653876289,401073.0,434129.0,450243.0,174492.0
567039.8837135211,401225.0,434425.0,450437.0,174499.0
567039.9020394131,401457.0,434663.0,450631.0,174518.0
567039.9203653052,401691.0,434923.0,450985.0,174518.0
567039.9386911972,401879.0,435241.0,451273.0,174505.0
567039.9570170892,402075.0,435495.0,451500.0,174530.0
567039.9753429813,402134.0,435505.0,451481.0,174518.0
567039.9936688734,401973.0,435186.0,451207.0,174537.0
567040.0119947655,401556.0,434745.0,450708.0,174504.0
567040.0303206575,401039.0,434006.0,449956.0,174476.0
567040.0486465496,400434.0,433272.0,449276.0,174496.0
567040.0669724416,399894.0,432515.0,448507.0,174462.0
567040.0852983337,399308.0,431859.0,447782.0,174471.0
567040.1036242258,398717.0,431046.0,446996.0,174413.0
567040.1219501179,398207.0,430337.0,446317.0,174457.0
567040.1402760099,397735.0,429592.0,445634.0,174447.0
567040.158601902,397361.0,429057.0,445076.0,174549.0
567040.176927794,397039.0,428588.0,444631.0,174529.0
567040.195253686,396784.0,428237.0,444281.0,174541.0
567040.2135795782,396644.0,428020.0,444115.0,174491.0
567040.2319054703,396637.0,427963.0,444014.0,174483.0
567040.2502313623,396665.0,427952.0,444005.0,174477.0
567040.2685572543,396761.0,428002.0,444092.0,174485.0
567040.2868831464,396827.0,428104.0,444151.0,174436.0
567040.3052090384,396930.0,428198.0,444250.0,174512.0
567040.3235349306,397000.0,428316.0,444307.0,174470.0
567040.3418608226,397133.0,428452.0,444458.0,174540.0
567040.3601867147,397191.0,428567.0,444564.0,174475.0
567040.3785126067,397372.0,428740.0,444734.0,174541.0
567040.3968384988,397560.0,428925.0,444833.0,174492.0
567040.4151643909,397636.0,429057.0,444987.0,174402.0
567040.433490283,397924.0,429370.0,445185.0,174447.0
567040.451816175,398068.0,429619.0,445401.0,174438.0
567040.4701420671,398171.0,429742.0,445558.0,174470.0
567040.4884679591,398336.0,429949.0,445832.0,174474.0
567040.5067938511,398550.0,430263.0,446040.0,174474.0
567040.5251197433,398725.0,430484.0,446264.0,174397.0
567040.5434456354,398983.0,430811.0,446526.0,174430.0
567040.5617715274,399092.0,430983.0,446741.0,174427.0
567040.5800974194,399319.0,431268.0,446971.0,174483.0
567040.5984233115,399521.0,431588.0,447226.0,174484.0
567040.6167492035,399777.0,431872.0,447546.0,174521.0
567040.6350750957,399936.0,432109.0,447746.0,174504.0
567040.6534009877,400089.0,432323.0,447942.0,174431.0
567040.6717268798,400253.0,432491.0,448137.0,174451.0
567040.6900527718,400426.0,432760.0,448381.0,174448.0
567040.7083786639,400654.0,433108.0,448633.0,174481.0
567040.7267045559,400772.0,433278.0,448827.0,174501.0
567040.7450304481,400942.0,433542.0,449062.0,174511.0
567040.7633563401,401144.0,433720.0,449235.0,174489.0
567040.7816822322,401321.0,433958.0,449547.0,174536.0
567040.8000081242,401492.0,434176.0,449790.0,174520.0
567040.8183340163,401642.0,434347.0,449958.0,174448.0
567040.8366599083,401727.0,434418.0,450017.0,174437.0
567040.8549858005,401589.0,434223.0,449826.0,174491.0
567040.8733116925,401215.0,433754.0,449279.0,174491.0
567040.8916375845,400702.0,433101.0,448636.0,174508.0
567040.9099634766,400179.0,432402.0,447979.0,174522.0
567040.9282893686,399693.0,431653.0,447262.0,174555.0
567040.9466152607,398994.0,430873.0,446464.0,174479.0
567040.9649411528,398420.0,430143.0,445827.0,174482.0
567040.9832670449,397917.0,429470.0,445098.0,174487.0
567041.0015929369,397458.0,428854.0,444498.0,174485.0
567041.019918829,397041.0,428276.0,443935.0,174412.0
567041.038244721,396738.0,427808.0,443492.0,174459.0
567041.0565706131,396462.0,427415.0,443156.0,174454.0
567041.0748965052,396285.0,427231.0,442908.0,174475.0
567041.0932223973,396253.0,427138.0,442893.0,174521.0
567041.1115482893,396271.0,427177.0,442835.0,174452.0
567041.1298741814,396351.0,427233.0,442934.0,174466.0
567041.1482000734,396432.0,427360.0,443056.0,174583.0
567041.1665259656,396486.0,427396.0,443082.0,174508.0
567041.1848518576,396591.0,427486.0,443160.0,174472.0
567041.2031777496,396678.0,427620.0,443307.0,174474.0
567041.2215036417,396834.0,427781.0,443384.0,174474.0
567041.2398295337,396822.0,427869.0,443478.0,174429.0
567041.2581554258,397004.0,428079.0,443667.0,174505.0
567041.2764813179,397141.0,428229.0,443738.0,174402.0
567041.29480721,397255.0,428434.0,443977.0,174416.0
567041.313133102,397402.0,428622.0,444166.0,174460.0
567041.3314589941,397525.0,428785.0,444358.0,174492.0
567041.3497848861,397686.0,429049.0,444546.0,174450.0
567041.3681107782,397917.0,429259.0,444776.0,174540.0
567041.3864366703,398098.0,429504.0,444976.0,174469.0
567041.4047625624,398253.0,429650.0,445145.0,174483.0
567041.4230884544,398373.0,429840.0,445399.0,174410.0
567041.4414143465,398617.0,430199.0,445657.0,174475.0
567041.4597402385,398756.0,430445.0,445844.0,174513.0
567041.4780661305,398877.0,430623.0,446031.0,174478.0
567041.4963920227,399014.0,430841.0,446270.0,174475.0
567041.5147179147,399077.0,431004.0,446428.0,174415.0
567041.5330438068,399349.0,431261.0,446619.0,174503.0
567041.5513696988,399456.0,431384.0,446745.0,174457.0
567041.5696955909,399588.0,431581.0,447017.0,174520.0
567041.5880214829,399767.0,431818.0,447281.0,174491.0
567041.6063473751,399887.0,432030.0,447476.0,174471.0
567041.6246732671,400079.0,432262.0,447682.0,174459.0
567041.6429991592,400181.0,432432.0,447882.0,174467.0
567041.6613250512,400364.0,432619.0,447996.0,174385.0
567041.6796509433,400338.0,432649.0,447979.0,174444.0
567041.6979768353,400112.0,432274.0,447699.0,174449.0
567041.7163027275,399642.0,431809.0,447169.0,174467.0
567041.7346286195,399197.0,431330.0,446588.0,174494.0
567041.7529545116,398741.0,430699.0,445918.0,174504.0
567041.7712804036,398227.0,430009.0,445265.0,174476.0
567041.7896062956,397730.0,429476.0,444710.0,174521.0
567041.8079321877,397217.0,428883.0,444064.0,174473.0
567041.8262580798,396786.0,428305.0,443551.0,174448.0
567041.8445839719,396451.0,427830.0,443120.0,174455.0
567041.8629098639,396100.0,427394.0,442666.0,174418.0
567041.881235756,395918.0,427049.0,442358.0,174406.0
567041.899561648,395766.0,426846.0,442216.0,174456.0
567041.9178875401,395846.0,426946.0,442360.0,174486.0
567041.9362134322,395921.0,426967.0,442381.0,174484.0
567041.9545393243,395938.0,427062.0,442402.0,174385.0
567041.9728652163,396051.0,427197.0,442564.0,174521.0
567041.9911911084,396106.0,427323.0,442673.0,174429.0
567042.0095170004,396252.0,427456.0,442806.0,174525.0
567042.0278428926,396323.0,427571.0,442892.0,174452.0
567042.0461687846,396373.0,427747.0,443033.0,174457.0
567042.0644946767,396524.0,427861.0,443174.0,174492.0
567042.0828205687,396648.0,428087.0,443396.0,174459.0
567042.1011464607,396791.0,428188.0,443489.0,174420.0
567042.1194723528,396931.0,428495.0,443714.0,174459.0
567042.137798245,397152.0,428729.0,443917.0,174486.0
567042.156124137,397279.0,428937.0,444165.0,174512.0
567042.174450029,397436.0,429174.0,444387.0,174519.0
567042.1927759211,397596.0,429470.0,444616.0,174528.0
567042.2111018131,397831.0,429724.0,444840.0,174487.0
567042.2294277052,397988.0,429957.0,445050.0,174429.0
567042.2477535973,398124.0,430270.0,445288.0,174440.0
567042.2660794894,398370.0,430578.0,445574.0,174482.0
567042.2844053814,398494.0,430838.0,445775.0,174494.0
567042.3027312735,398710.0,431122.0,446092.0,174478.0
567042.3210571655,398873.0,431325.0,446321.0,174518.0
567042.3393830576,399048.0,431623.0,446567.0,174498.0
567042.3577089497,399247.0,431861.0,446781.0,174442.0
567042.3760348418,399444.0,432218.0,447083.0,174502.0
567042.3943607338,399625.0,432509.0,447390.0,174562.0
567042.4126866258,399833.0,432787.0,447613.0,174526.0
567042.4310125179,400031.0,433108.0,447869.0,174470.0
567042.4493384099,400260.0,433397.0,448178.0,174439.0
567042.4676643021,400487.0,433684.0,448459.0,174515.0
567042.4859901941,400588.0,433835.0,448601.0,174416.0
567042.5043160862,400589.0,433906.0,448547.0,174487.0
567042.5226419782,400327.0,433538.0,448192.0,174491.0
567042.5409678703,399970.0,433084.0,447693.0,174441.0
567042.5592937623,399537.0,432571.0,447188.0,174486.0
567042.5776196545,399089.0,432046.0,446636.0,174454.0
567042.5959455465,398634.0,431449.0,446123.0,174495.0
567042.6142714386,398197.0,430872.0,445515.0,174493.0
567042.6325973306,397733.0,430385.0,445000.0,174483.0
567042.6509232227,397405.0,429868.0,444508.0,174465.0
567042.6692491147,397069.0,429447.0,444134.0,174460.0
567042.6875750069,396836.0,429125.0,443788.0,174423.0
567042.7059008989,396617.0,428921.0,443593.0,174450.0
567042.724226791,396550.0,428793.0,443559.0,174469.0
567042.742552683,396643.0,428939.0,443682.0,174516.0
567042.760878575,396715.0,428964.0,443738.0,174493.0
567042.7792044671,396820.0,429095.0,443830.0,174508.0
567042.7975303592,396874.0,429177.0,443943.0,174466.0
567042.8158562513,397082.0,429366.0,444139.0,174506.0
567042.8341821433,397224.0,429616.0,444365.0,174520.0
567042.8525080354,397285.0,429761.0,444430.0,174435.0
567042.8708339274,397453.0,429934.0,444603.0,174495.0
567042.8891598196,397603.0,430109.0,444817.0,174467.0
567042.9074857116,397787.0,430399.0,445114.0,174525.0
567042.9258116037,397954.0,430645.0,445314.0,174493.0
567042.9441374957,398108.0,430860.0,445529.0,174457.0
567042.9624633878,398302.0,431111.0,445753.0,174487.0
567042.9807892798,398455.0,431431.0,446034.0,174449.0
567042.999115172,398657.0,431704.0,446332.0,174470.0
567043.017441064,398907.0,431979.0,446611.0,174489.0
567043.035766956,399074.0,432235.0,446826.0,174483.0
567043.0540928481,399313.0,432545.0,447154.0,174469.0
567043.0724187401,399503.0,432818.0,447389.0,174502.0
567043.0907446322,399683.0,433117.0,447666.0,174546.0
567043.1090705243,399920.0,433398.0,447936.0,174489.0
567043.1273964164,400107.0,433630.0,448147.0,174439.0
567043.1457223084,400332.0,433952.0,448490.0,174489.0
567043.1640482005,400522.0,434227.0,448779.0,174498.0
567043.1823740925,400712.0,434501.0,449008.0,174504.0
567043.2006999846,400923.0,434792.0,449261.0,174505.0
567043.2190258767,401057.0,435065.0,449575.0,174443.0
567043.2373517688,401237.0,435284.0,449808.0,174477.0
567043.2556776608,401510.0,435552.0,450134.0,174553.0
567043.2740035529,401700.0,435893.0,450439.0,174524.0
567043.2923294449,401954.0,436177.0,450715.0,174513.0
567043.310655337,402130.0,436447.0,450951.0,174556.0
567043.3289812291,402157.0,436567.0,450967.0,174498.0
567043.3473071211,401955.0,436373.0,450785.0,174517.0
567043.3656330132,401585.0,435873.0,450331.0,174475.0
567043.3839589052,401193.0,435307.0,449791.0,174506.0
567043.4022847973,400667.0,434657.0,449134.0,174483.0
567043.4206106893,400222.0,434031.0,448543.0,174594.0
567043.4389365815,399690.0,433432.0,447911.0,174543.0
567043.4572624735,399164.0,432782.0,447350.0,174550.0
567043.4755883656,398669.0,432109.0,446696.0,174485.0
567043.4939142576,398350.0,431613.0,446280.0,174466.0
567043.5122401497,397966.0,431128.0,445787.0,174521.0
567043.5305660417,397668.0,430718.0,445426.0,174506.0
567043.5488919339,397461.0,430517.0,445205.0,174451.0
567043.5672178259,397394.0,430432.0,445204.0,174483.0
567043.585543718,397454.0,430439.0,445301.0,174521.0
567043.60386961,397557.0,430568.0,445390.0,174539.0
567043.622195502,397678.0,430701.0,445545.0,174546.0
567043.6405213942,397775.0,430860.0,445709.0,174490.0
567043.6588472862,397887.0,430981.0,445817.0,174516.0
567043.6771731783,397929.0,431154.0,445945.0,174502.0
567043.6954990703,398061.0,431278.0,446084.0,174470.0
567043.7138249624,398252.0,431495.0,446258.0,174518.0
567043.7321508544,398455.0,431702.0,446501.0,174585.0
567043.7504767466,398534.0,431862.0,446691.0,174517.0
567043.7688026386,398723.0,432080.0,446820.0,174496.0
567043.7871285307,398899.0,432321.0,447156.0,174536.0
567043.8054544227,399111.0,432605.0,447330.0,174550.0
567043.8237803148,399260.0,432845.0,447549.0,174443.0
567043.8421062068,399488.0,433111.0,447858.0,174498.0
567043.860432099,399639.0,433469.0,448124.0,174509.0
567043.878757991,399849.0,433723.0,448383.0,174502.0
567043.897083883,400053.0,434052.0,448715.0,174525.0
567043.9154097751,400290.0,434360.0,449018.0,174530.0
567043.9337356671,400564.0,434595.0,449307.0,174516.0
567043.9520615592,400747.0,434917.0,449581.0,174485.0
567043.9703874514,400966.0,435191.0,449860.0,174481.0
567043.9887133434,401098.0,435469.0,450101.0,174432.0
567044.0070392354,401328.0,435750.0,450429.0,174477.0
567044.0253651275,401590.0,436017.0,450692.0,174572.0
567044.0436910195,401777.0,436320.0,450984.0,174490.0
567044.0620169116,401970.0,436552.0,451252.0,174524.0
567044.0803428037,402153.0,436846.0,451488.0,174466.0
567044.0986686958,402356.0,437165.0,451800.0,174500.0
567044.1169945878,402644.0,437489.0,452065.0,174530.0
567044.1353204799,402853.0,437796.0,452409.0,174499.0
567044.1536463719,403021.0,438011.0,452597.0,174516.0
567044.171972264,403041.0,438006.0,452601.0,174511.0
567044.1902981561,402879.0,437816.0,452426.0,174516.0
567044.2086240482,402525.0,437451.0,452026.0,174524.0
567044.2269499402,402051.0,436829.0,451426.0,174521.0
567044.2452758322,401538.0,436154.0,450801.0,174491.0
567044.2636017243,401089.0,435548.0,450218.0,174527.0
567044.2819276163,400556.0,434856.0,449579.0,174559.0
567044.3002535085,400031.0,434199.0,448973.0,174487.0
567044.3185794005,399641.0,433606.0,448512.0,174551.0
567044.3369052926,399258.0,432965.0,448024.0,174510.0
567044.3552311846,398955.0,432622.0,447674.0,174537.0
567044.3735570767,398657.0,432266.0,447412.0,174537.0
567044.3918829687,398500.0,431938.0,447165.0,174610.0
567044.4102088609,398406.0,431871.0,447084.0,174507.0
567044.4285347529,398434.0,431852.0,447123.0,174542.0
567044.446860645,398518.0,431901.0,447234.0,174573.0
567044.465186537,398570.0,432045.0,447332.0,174538.0
567044.483512429,398659.0,432086.0,447434.0,174486.0
567044.5018383212,398812.0,432124.0,447524.0,174539.0
567044.5201642133,398848.0,432269.0,447630.0,174504.0
567044.5384901053,398931.0,432425.0,447857.0,174541.0
567044.5568159973,399006.0,432518.0,447972.0,174490.0
567044.5751418894,399214.0,432661.0,448129.0,174561.0
567044.5934677814,399413.0,432841.0,448390.0,174535.0
567044.6117936736,399543.0,433066.0,448579.0,174605.0
567044.6301195656,399669.0,433226.0,448760.0,174554.0
567044.6484454577,399872.0,433444.0,449016.0,174594.0
567044.6667713497,400023.0,433665.0,449204.0,174471.0
567044.6850972418,400172.0,433899.0,449523.0,174488.0
567044.7034231338,400379.0,434125.0,449725.0,174537.0
567044.721749026,400585.0,434320.0,450013.0,174576.0
567044.740074918,400807.0,434616.0,450183.0,174479.0
567044.7584008101,401020.0,434952.0,450477.0,174584.0
567044.7767267021,401179.0,435159.0,450737.0,174544.0
567044.7950525942,401415.0,435413.0,451011.0,174598.0
567044.8133784862,401540.0,435632.0,451181.0,174575.0
567044.8317043784,401697.0,435842.0,451469.0,174535.0
567044.8500302704,401840.0,436062.0,451642.0,174485.0
567044.8683561624,402043.0,436275.0,451917.0,174507.0
567044.8866820545,402232.0,436453.0,452127.0,174475.0
567044.9050079465,402386.0,436732.0,452413.0,174516.0
567044.9233338386,402594.0,436951.0,452672.0,174549.0
567044.9416597307,402760.0,437217.0,452944.0,174519.0
567044.9599856228,403003.0,437475.0,453180.0,174551.0
567044.9783115148,403120.0,437726.0,453444.0,174512.0
567044.9966374069,403197.0,437800.0,453497.0,174458.0
567045.0149632989,403148.0,437656.0,453384.0,174431.0
567045.033289191,402884.0,437299.0,453083.0,174527.0
567045.0516150831,402430.0,436720.0,452455.0,174487.0
567045.0699409752,401922.0,436034.0,451871.0,174530.0
567045.0882668672,401370.0,435346.0,451248.0,174508.0
567045.1065927593,400903.0,434692.0,450640.0,174518.0
567045.1249186513,400378.0,434029.0,450001.0,174450.0
567045.1432445433,399938.0,433388.0,449444.0,174492.0
567045.1615704355,399438.0,432754.0,448973.0,174460.0
567045.1798963276,399116.0,432264.0,448473.0,174528.0
567045.1982222196,398809.0,431787.0,448142.0,174542.0
567045.2165481116,398599.0,431451.0,447900.0,174490.0
567045.2348740037,398554.0,431251.0,447712.0,174517.0
567045.2531998957,398541.0,431158.0,447695.0,174455.0
567045.2715257879,398557.0,431208.0,447767.0,174475.0
567045.2898516799,398643.0,431276.0,447783.0,174440.0
567045.308177572,398677.0,431372.0,447867.0,174483.0
567045.326503464,398711.0,431387.0,447883.0,174479.0
567045.3448293561,398788.0,431477.0,447997.0,174486.0
567045.3631552482,398881.0,431511.0,448129.0,174472.0
567045.3814811403,398957.0,431547.0,448176.0,174499.0
567045.3998070323,399084.0,431698.0,448392.0,174534.0
567045.4181329244,399103.0,431762.0,448474.0,174481.0
567045.4364588164,399253.0,431946.0,448631.0,174507.0
567045.4547847084,399365.0,432018.0,448703.0,174479.0
567045.4731106006,399451.0,432134.0,448876.0,174495.0
567045.4914364927,399620.0,432295.0,449035.0,174490.0
567045.5097623847,399723.0,432528.0,449194.0,174485.0
567045.5280882767,399885.0,432648.0,449385.0,174504.0
567045.5464141688,400007.0,432871.0,449592.0,174471.0
567045.5647400608,400138.0,433073.0,449739.0,174516.0
567045.583065953,400243.0,433256.0,449923.0,174504.0
567045.601391845,400427.0,433432.0,450165.0,174543.0
567045.6197177371,400649.0,433662.0,450385.0,174475.0
567045.6380436291,400870.0,433863.0,450580.0,174451.0
567045.6563695212,401005.0,434027.0,450802.0,174499.0
567045.6746954132,401209.0,434264.0,450958.0,174485.0
567045.6930213054,401322.0,434457.0,451076.0,174546.0
567045.7113471974,401578.0,434674.0,451343.0,174570.0
567045.7296730895,401577.0,434862.0,451543.0,174555.0
567045.7479989815,401784.0,435120.0,451733.0,174647.0
567045.7663248735,401963.0,435333.0,451995.0,174613.0
567045.7846507656,402153.0,435608.0,452202.0,174649.0
567045.8029766578,402214.0,435816.0,452361.0,174720.0
567045.8213025498,402111.0,435747.0,452347.0,174695.0
567045.8396284418,401874.0,435372.0,451977.0,174683.0
567045.8579543339,401431.0,434885.0,451474.0,174682.0
567045.8762802259,400911.0,434228.0,450821.0,174557.0
567045.894606118,400467.0,433596.0,450233.0,174533.0
567045.9129320101,399914.0,432920.0,449576.0,174498.0
567045.9312579022,399515.0,432256.0,449069.0,174523.0
567045.9495837942,399113.0,431740.0,448547.0,174550.0
567045.9679096863,398738.0,431188.0,448001.0,174577.0
567045.9862355783,398479.0,430715.0,447575.0,174567.0
567046.0045614704,398034.0,430245.0,447107.0,174443.0
567046.0228873625,397864.0,429969.0,446856.0,174518.0
567046.0412132546,397861.0,429857.0,446684.0,174583.0
567046.0595391466,397823.0,429808.0,446730.0,174544.0
567046.0778650386,397883.0,429886.0,446827.0,174535.0
567046.0961909307,397899.0,429947.0,446826.0,174450.0
567046.1145168229,398043.0,430014.0,446898.0,174523.0
567046.1328427149,398099.0,430087.0,446952.0,174568.0
567046.151168607,398158.0,430158.0,447028.0,174538.0
567046.169494499,398259.0,430267.0,447128.0,174472.0
567046.187820391,398377.0,430428.0,447195.0,174484.0
567046.2061462831,398465.0,430576.0,447378.0,174510.0
567046.2244721752,398626.0,430737.0,447466.0,174501.0
567046.2427980673,398760.0,430910.0,447652.0,174458.0
567046.2611239593,398970.0,431159.0,447967.0,174515.0
567046.2794498514,399075.0,431343.0,448083.0,174439.0
567046.2977757434,399321.0,431596.0,448295.0,174533.0
567046.3161016355,399515.0,431847.0,448453.0,174524.0
567046.3344275276,399681.0,432136.0,448768.0,174525.0
567046.3527534197,399861.0,432402.0,449022.0,174496.0
567046.3710793117,399972.0,432593.0,449150.0,174537.0
567046.3894052038,400222.0,432928.0,449498.0,174536.0
567046.4077310958,400388.0,433143.0,449666.0,174532.0
567046.4260569878,400632.0,433461.0,450018.0,174558.0
567046.44438288,400877.0,433747.0,450233.0,174572.0
567046.462708772,401051.0,434015.0,450503.0,174634.0
567046.4810346641,401220.0,434220.0,450672.0,174505.0
567046.4993605561,401423.0,434398.0,450907.0,174533.0
567046.5176864482,401606.0,434701.0,451113.0,174541.0
567046.5360123402,401798.0,434985.0,451405.0,174545.0
567046.5543382324,402004.0,435214.0,451634.0,174521.0
567046.5726641244,402185.0,435555.0,451895.0,174551.0
567046.5909900165,402402.0,435833.0,452181.0,174554.0
567046.6093159085,402638.0,436078.0,452381.0,174555.0
567046.6276418006,402794.0,436383.0,452616.0,174555.0
567046.6459676926,402817.0,436329.0,452652.0,174544.0
567046.6642935848,402589.0,436032.0,452296.0,174575.0
567046.6826194768,402174.0,435478.0,451740.0,174570.0
567046.7009453689,401623.0,434793.0,451042.0,174449.0
567046.7192712609,401140.0,434096.0,450404.0,174606.0
567046.7375971529,400534.0,433290.0,449600.0,174555.0
567046.755923045,399963.0,432596.0,448865.0,174534.0
567046.7742489371,399481.0,431860.0,448182.0,174576.0
567046.7925748292,398948.0,431160.0,447487.0,174560.0
567046.8109007212,398446.0,430496.0,446820.0,174519.0
567046.8292266133,398035.0,429904.0,446265.0,174511.0
567046.8475525053,397724.0,429416.0,445810.0,174541.0
567046.8658783974,397511.0,429091.0,445416.0,174563.0
567046.8842042895,397361.0,428958.0,445212.0,174555.0
567046.9025301816,397261.0,428883.0,445213.0,174518.0
567046.9208560736,397368.0,428971.0,445246.0,174546.0
567046.9391819657,397423.0,429044.0,445302.0,174577.0
567046.9575078577,397385.0,429040.0,445314.0,174502.0
567046.9758337499,397530.0,429099.0,445315.0,174502.0
567046.9941596419,397651.0,429220.0,445397.0,174524.0
567047.012485534,397719.0,429352.0,445530.0,174519.0
567047.030811426,397833.0,429458.0,445690.0,174504.0
567047.049137318,397927.0,429623.0,445824.0,174517.0
567047.0674632101,398065.0,429731.0,445906.0,174510.0
567047.0857891022,398187.0,429925.0,446103.0,174542.0
567047.1041149943,398334.0,430101.0,446249.0,174530.0
567047.1224408863,398433.0,430340.0,446423.0,174495.0
567047.1407667784,398627.0,430587.0,446642.0,174536.0
567047.1590926704,398831.0,430786.0,446835.0,174504.0
567047.1774185625,398979.0,431017.0,447023.0,174491.0
567047.1957444546,399190.0,431395.0,447324.0,174535.0
567047.2140703467,399365.0,431580.0,447545.0,174481.0
567047.2323962387,399531.0,431830.0,447722.0,174487.0
567047.2507221308,399759.0,432027.0,447993.0,174502.0
567047.2690480228,399980.0,432342.0,448318.0,174577.0
567047.2873739148,400158.0,432523.0,448467.0,174526.0
567047.305699807,400240.0,432781.0,448673.0,174465.0
567047.324025699,400445.0,433012.0,448933.0,174506.0
567047.3423515911,400661.0,433264.0,449112.0,174513.0
567047.3606774831,400878.0,433542.0,449398.0,174537.0
567047.3790033752,401063.0,433779.0,449562.0,174513.0
567047.3973292672,401214.0,434046.0,449872.0,174540.0
567047.4156551594,401434.0,434340.0,450079.0,174596.0
567047.4339810514,401612.0,434586.0,450367.0,174572.0
567047.4523069435,401809.0,434789.0,450605.0,174557.0
567047.4706328355,401944.0,434961.0,450735.0,174574.0
567047.4889587276,401810.0,434827.0,450529.0,174546.0
567047.5072846196,401507.0,434407.0,450110.0,174525.0
567047.5256105118,400955.0,433820.0,449486.0,174526.0
567047.5439364038,400380.0,433089.0,448767.0,174499.0
567047.5622622959,399809.0,432358.0,447977.0,174523.0
567047.5805881879,399265.0,431564.0,447240.0,174518.0
567047.59891408,398656.0,430796.0,446460.0,174522.0
567047.617239972,398144.0,430048.0,445770.0,174530.0
567047.6355658642,397636.0,429404.0,445158.0,174585.0
567047.6538917562,397085.0,428756.0,444529.0,174519.0
567047.6722176482,396844.0,428242.0,444079.0,174534.0
567047.6905435403,396535.0,427865.0,443643.0,174511.0
567047.7088694323,396365.0,427701.0,443465.0,174541.0
567047.7271953245,396371.0,427587.0,443370.0,174503.0
567047.7455212165,396383.0,427583.0,443405.0,174493.0
567047.7638471086,396501.0,427631.0,443445.0,174538.0
567047.7821730006,396588.0,427833.0,443559.0,174576.0
567047.8004988927,396604.0,427898.0,443642.0,174540.0
567047.8188247847,396690.0,428041.0,443722.0,174529.0
567047.8371506769,396794.0,428118.0,443789.0,174536.0
567047.8554765689,396890.0,428251.0,443901.0,174532.0
567047.873802461,397014.0,428309.0,444041.0,174492.0
567047.892128353,397184.0,428555.0,444217.0,174560.0
567047.910454245,397289.0,428718.0,444388.0,174550.0
567047.9287801371,397512.0,429003.0,444625.0,174539.0
567047.9471060293,397664.0,429199.0,444831.0,174551.0
567047.9654319213,397831.0,429452.0,445053.0,174547.0
567047.9837578133,398005.0,429625.0,445203.0,174534.0
567048.0020837054,398193.0,429947.0,445511.0,174566.0
567048.0204095974,398372.0,430168.0,445761.0,174507.0
567048.0387354895,398506.0,430409.0,445985.0,174484.0
567048.0570613816,398729.0,430678.0,446207.0,174562.0
567048.0753872737,398986.0,430973.0,446442.0,174556.0
567048.0937131657,399186.0,431213.0,446698.0,174576.0
567048.1120390578,399374.0,431478.0,446886.0,174537.0
567048.1303649498,399555.0,431689.0,447187.0,174516.0
567048.1486908419,399710.0,431963.0,447420.0,174564.0
567048.167016734,399921.0,432217.0,447674.0,174550.0
567048.1853426261,400074.0,432416.0,447783.0,174513.0
567048.2036685181,400324.0,432695.0,448092.0,174544.0
567048.2219944102,400544.0,432985.0,448354.0,174544.0
567048.2403203022,400690.0,433231.0,448584.0,174557.0
567048.2586461942,400874.0,433549.0,448887.0,174515.0
567048.2769720864,401179.0,433857.0,449223.0,174552.0
567048.2952979784,401375.0,434106.0,449410.0,174524.0
567048.3136238705,401440.0,434219.0,449518.0,174603.0
567048.3319497625,401320.0,434060.0,449310.0,174577.0
567048.3502756546,400853.0,433543.0,448734.0,174493.0
567048.3686015466,400364.0,432903.0,448165.0,174526.0
567048.3869274388,399800.0,432222.0,447461.0,174571.0
567048.4052533308,399259.0,431435.0,446719.0,174498.0
567048.4235792229,398661.0,430632.0,445954.0,174560.0
567048.4419051149,398082.0,429879.0,445271.0,174532.0
567048.460231007,397611.0,429219.0,444637.0,174543.0
567048.478556899,397190.0,428621.0,444029.0,174558.0
567048.4968827912,396853.0,428099.0,443584.0,174555.0
567048.5152086832,396440.0,427580.0,443082.0,174510.0
567048.5335345753,396220.0,427253.0,442756.0,174555.0
567048.5518604673,396130.0,427153.0,442749.0,174581.0
567048.5701863593,396102.0,427132.0,442721.0,174542.0
567048.5885122515,396197.0,427220.0,442788.0,174559.0
567048.6068381435,396201.0,427287.0,442828.0,174544.0
567048.6251640356,396283.0,427252.0,442838.0,174533.0
567048.6434899276,396416.0,427394.0,442897.0,174609.0
567048.6618158197,396453.0,427494.0,442967.0,174600.0
567048.6801417117,396572.0,427646.0,443120.0,174609.0
567048.6984676039,396620.0,427700.0,443159.0,174526.0
567048.7167934959,396696.0,427899.0,443327.0,174530.0
567048.735119388,396903.0,428183.0,443544.0,174550.0
567048.75344528,397015.0,428377.0,443748.0,174509.0
567048.7717711721,397223.0,428544.0,443923.0,174532.0
567048.7900970641,397337.0,428720.0,444087.0,174484.0
567048.8084229563,397546.0,428948.0,444338.0,174448.0
567048.8267488483,397762.0,429247.0,444580.0,174495.0
567048.8450747404,397891.0,429540.0,444822.0,174453.0
567048.8634006324,398175.0,429823.0,445134.0,174503.0
567048.8817265244,398406.0,430169.0,445278.0,174487.0
567048.9000524165,398643.0,430397.0,445595.0,174485.0
567048.9183783086,398875.0,430694.0,445872.0,174554.0
567048.9367042007,399085.0,431001.0,446172.0,174533.0
567048.9550300927,399340.0,431310.0,446419.0,174501.0
567048.9733559848,399460.0,431517.0,446622.0,174470.0
567048.9916818768,399700.0,431842.0,446938.0,174466.0
567049.0100077689,399936.0,432085.0,447183.0,174477.0
567049.028333661,400059.0,432404.0,447421.0,174468.0
567049.0466595531,400410.0,432756.0,447735.0,174528.0
567049.0649854451,400716.0,433089.0,448048.0,174522.0
567049.0833113372,400872.0,433415.0,448292.0,174447.0
567049.1016372292,401109.0,433751.0,448678.0,174488.0
567049.1199631213,401313.0,434045.0,448967.0,174520.0
567049.1382890134,401465.0,434316.0,449226.0,174522.0
567049.1566149055,401606.0,434440.0,449346.0,174553.0
567049.1749407975,401475.0,434282.0,449125.0,174556.0
567049.1932666895,401131.0,433779.0,448638.0,174485.0
567049.2115925816,400630.0,433206.0,448049.0,174490.0
567049.2299184736,400146.0,432633.0,447422.0,174491.0
567049.2482443658,399599.0,431964.0,446809.0,174535.0
567049.2665702578,399216.0,431344.0,446226.0,174517.0
567049.2848961499,398701.0,430672.0,445652.0,174520.0
567049.3032220419,398298.0,430159.0,445136.0,174478.0
567049.321547934,397978.0,429748.0,444778.0,174510.0
567049.339873826,397727.0,429348.0,444401.0,174540.0
567049.3581997182,397456.0,429003.0,444100.0,174541.0
567049.3765256102,397369.0,428821.0,443962.0,174543.0
567049.3948515023,397349.0,428759.0,443885.0,174457.0
567049.4131773943,397468.0,428879.0,443971.0,174499.0
567049.4315032864,397500.0,428902.0,444063.0,174501.0
567049.4498291785,397502.0,428998.0,444194.0,174507.0
567049.4681550706,397563.0,429038.0,444254.0,174550.0
567049.4864809626,397632.0,429082.0,444373.0,174562.0
567049.5048068546,397593.0,429106.0,444360.0,174442.0
567049.5231327467,397694.0,429221.0,444413.0,174439.0
567049.5414586387,397758.0,429362.0,444505.0,174484.0
567049.5597845309,397830.0,429442.0,444657.0,174522.0
567049.5781104229,397856.0,429466.0,444671.0,174430.0
567049.596436315,397867.0,429509.0,444806.0,174455.0
567049.614762207,398008.0,429650.0,444923.0,174473.0
567049.6330880991,398029.0,429755.0,445033.0,174505.0
567049.6514139911,398062.0,429796.0,445075.0,174484.0
567049.6697398833,398162.0,429994.0,445311.0,174490.0
567049.6880657753,398258.0,430085.0,445388.0,174492.0
567049.7063916674,398359.0,430245.0,445531.0,174533.0
567049.7247175594,398445.0,430396.0,445650.0,174491.0
567049.7430434515,398568.0,430530.0,445812.0,174526.0
567049.7613693435,398702.0,430663.0,445966.0,174494.0
567049.7796952357,398778.0,430817.0,446110.0,174439.0
567049.7980211277,398777.0,430968.0,446261.0,174500.0
567049.8163470197,398923.0,431095.0,446391.0,174509.0
567049.8346729118,399045.0,431190.0,446566.0,174518.0
567049.8529988038,399170.0,431370.0,446699.0,174479.0
567049.8713246959,399160.0,431507.0,446812.0,174413.0
567049.889650588,399362.0,431762.0,447050.0,174423.0
567049.9079764801,399481.0,431997.0,447306.0,174491.0
567049.9263023721,399720.0,432249.0,447513.0,174519.0
567049.9446282642,399834.0,432442.0,447645.0,174477.0
567049.9629541562,399921.0,432594.0,447782.0,174495.0
567049.9812800483,399802.0,432520.0,447644.0,174521.0
567049.9996059404,399494.0,432161.0,447261.0,174496.0
567050.0179318325,399130.0,431531.0,446698.0,174474.0
567050.0362577245,398687.0,431017.0,446118.0,174502.0
567050.0545836166,398189.0,430367.0,445522.0,174469.0
567050.0729095086,397660.0,429760.0,444995.0,174418.0
567050.0912354006,397342.0,429296.0,444501.0,174479.0
567050.1095612928,396950.0,428822.0,444020.0,174434.0
567050.1278871848,396605.0,428334.0,443631.0,174523.0
567050.1462130769,396323.0,427919.0,443247.0,174490.0
567050.1645389689,396100.0,427668.0,442978.0,174493.0
567050.182864861,395967.0,427500.0,442813.0,174456.0
567050.2011907531,395881.0,427492.0,442816.0,174466.0
567050.2195166452,395979.0,427537.0,442897.0,174452.0
567050.2378425372,396040.0,427658.0,442996.0,174469.0
567050.2561684293,396092.0,427692.0,443106.0,174435.0
567050.2744943213,396212.0,427855.0,443199.0,174472.0
567050.2928202134,396354.0,428046.0,443344.0,174496.0
567050.3111461055,396474.0,428188.0,443513.0,174501.0
567050.3294719976,396594.0,428346.0,443678.0,174486.0
567050.3477978896,396691.0,428525.0,443803.0,174431.0
567050.3661237817,396897.0,428777.0,444049.0,174472.0
567050.3844496737,397011.0,428963.0,444284.0,174482.0
567050.4027755657,397235.0,429279.0,444534.0,174486.0
567050.4211014579,397378.0,429481.0,444776.0,174536.0
567050.43942735,397565.0,429789.0,445020.0,174517.0
567050.457753242,397791.0,430099.0,445283.0,174492.0
567050.476079134,398055.0,430482.0,445581.0,174545.0
567050.4944050261,398258.0,430735.0,445833.0,174507.0
567050.5127309181,398486.0,431034.0,446144.0,174509.0
567050.5310568103,398697.0,431342.0,446367.0,174470.0
567050.5493827023,399024.0,431766.0,446751.0,174470.0
567050.5677085944,399217.0,432045.0,447071.0,174486.0
567050.5860344864,399481.0,432433.0,447434.0,174538.0
567050.6043603785,399760.0,432834.0,447768.0,174536.0
567050.6226862705,400001.0,433157.0,448055.0,174534.0
567050.6410121627,400288.0,433486.0,448393.0,174537.0
567050.6593380547,400486.0,433802.0,448732.0,174537.0
567050.6776639468,400740.0,434163.0,449050.0,174472.0
567050.6959898388,400975.0,434505.0,449325.0,174503.0
567050.7143157308,401255.0,434822.0,449668.0,174460.0
567050.7326416229,401439.0,435202.0,449992.0,174478.0
567050.750967515,401683.0,435615.0,450333.0,174537.0
567050.7692934071,401848.0,435798.0,450527.0,174461.0
567050.7876192991,401863.0,435830.0,450511.0,174464.0
567050.8059451912,401636.0,435525.0,450217.0,174450.0
567050.8242710832,401195.0,435001.0,449678.0,174392.0
567050.8425969753,400790.0,434419.0,449146.0,174486.0
567050.8609228674,400333.0,433753.0,448513.0,174519.0
567050.8792487595,399752.0,433051.0,447870.0,174489.0
567050.8975746515,399206.0,432407.0,447246.0,174510.0
567050.9159005436,398686.0,431709.0,446572.0,174450.0
567050.9342264356,398194.0,430992.0,445942.0,174505.0
567050.9525523277,397749.0,430477.0,445495.0,174458.0
567050.9708782198,397410.0,429996.0,445069.0,174503.0
567050.9892041119,397080.0,429595.0,444661.0,174513.0
567051.0075300039,396931.0,429284.0,444349.0,174532.0
567051.025855896,396928.0,429175.0,444409.0,174555.0
567051.044181788,396900.0,429277.0,444490.0,174499.0
567051.0625076802,397008.0,429320.0,444611.0,174512.0
567051.0808335722,397157.0,429503.0,444756.0,174518.0
567051.0991594642,397243.0,429664.0,444872.0,174545.0
567051.1174853563,397334.0,429755.0,444994.0,174516.0
567051.1358112483,397505.0,429948.0,445208.0,174504.0
567051.1541371404,397571.0,430105.0,445327.0,174487.0
567051.1724630325,397702.0,430356.0,445564.0,174529.0
567051.1907889246,397889.0,430609.0,445794.0,174559.0
567051.2091148166,398080.0,430885.0,445979.0,174513.0
567051.2274407087,398332.0,431103.0,446291.0,174532.0
567051.2457666007,398505.0,431384.0,446522.0,174486.0
567051.2640924928,398726.0,431676.0,446717.0,174549.0
567051.2824183849,398880.0,431974.0,446988.0,174520.0
567051.300744277,399175.0,432266.0,447371.0,174553.0
567051.319070169,399332.0,432468.0,447596.0,174482.0
567051.337396061,399557.0,432834.0,447931.0,174511.0
567051.3557219531,399809.0,433165.0,448219.0,174569.0
567051.3740478451,400067.0,433464.0,448516.0,174557.0
567051.3923737373,400264.0,433780.0,448801.0,174513.0
567051.4106996293,400450.0,434074.0,449109.0,174526.0
567051.4290255214,400725.0,434340.0,449384.0,174525.0
567051.4473514134,400870.0,434560.0,449625.0,174484.0
567051.4656773055,401086.0,434881.0,449980.0,174555.0
567051.4840031975,401341.0,435265.0,450276.0,174666.0
567051.5023290897,401551.0,435490.0,450532.0,174670.0
567051.5206549817,401776.0,435846.0,450814.0,174627.0
567051.5389808738,401956.0,436195.0,451167.0,174630.0
567051.5573067658,402207.0,436567.0,451522.0,174668.0
567051.5756326579,402331.0,436733.0,451722.0,174671.0
567051.5939585499,402367.0,436822.0,451828.0,174703.0
567051.6122844421,402232.0,436516.0,451532.0,174669.0
567051.6306103341,401805.0,436057.0,451013.0,174675.0
567051.6489362261,401361.0,435427.0,450552.0,174708.0
567051.6672621182,400826.0,434752.0,449913.0,174621.0
567051.6855880102,400236.0,434077.0,449236.0,174560.0
567051.7039139023,399704.0,433338.0,448439.0,174559.0
567051.7222397944,399155.0,432570.0,447735.0,174535.0
567051.7405656865,398686.0,432007.0,447122.0,174561.0
567051.7588915785,398229.0,431391.0,446607.0,174516.0
567051.7772174706,397795.0,430835.0,446116.0,174505.0
567051.7955433626,397546.0,430379.0,445673.0,174476.0
567051.8138692547,397359.0,430180.0,445520.0,174494.0
567051.8321951468,397279.0,430034.0,445467.0,174451.0
567051.8505210389,397338.0,430164.0,445520.0,174499.0
567051.8688469309,397501.0,430311.0,445720.0,174546.0
567051.887172823,397544.0,430389.0,445864.0,174521.0
567051.905498715,397737.0,430553.0,445987.0,174563.0
567051.9238246072,397825.0,430713.0,446190.0,174564.0
567051.9421504992,397970.0,430837.0,446373.0,174511.0
567051.9604763913,398063.0,431045.0,446554.0,174520.0
567051.9788022833,398199.0,431211.0,446701.0,174474.0
567051.9971281753,398345.0,431496.0,446901.0,174524.0
567052.0154540674,398593.0,431672.0,447145.0,174508.0
567052.0337799595,398720.0,431961.0,447392.0,174511.0
567052.0521058516,398955.0,432266.0,447721.0,174535.0
567052.0704317436,399154.0,432494.0,447925.0,174482.0
567052.0887576357,399348.0,432765.0,448173.0,174496.0
567052.1070835277,399530.0,433012.0,448492.0,174533.0
567052.1254094198,399725.0,433283.0,448806.0,174568.0
567052.1437353119,399893.0,433551.0,448969.0,174489.0
567052.162061204,400047.0,433786.0,449273.0,174449.0
567052.180387096,400338.0,434119.0,449553.0,174469.0
567052.198712988,400471.0,434370.0,449852.0,174494.0
567052.2170388801,400735.0,434690.0,450102.0,174542.0
567052.2353647721,400902.0,434874.0,450298.0,174532.0
567052.2536906643,401083.0,435157.0,450594.0,174511.0
567052.2720165564,401203.0,435347.0,450805.0,174477.0
567052.2903424484,401402.0,435561.0,451065.0,174462.0
567052.3086683404,401555.0,435863.0,451312.0,174452.0
567052.3269942325,401816.0,436189.0,451630.0,174539.0
567052.3453201245,401951.0,436394.0,451860.0,174543.0
567052.3636460167,402171.0,436663.0,452158.0,174567.0
567052.3819719087,402327.0,436875.0,452439.0,174534.0
567052.4002978008,402403.0,436985.0,452502.0,174535.0
567052.4186236928,402248.0,436845.0,452370.0,174532.0
567052.4369495849,401938.0,436410.0,451959.0,174467.0
567052.4552754769,401457.0,435783.0,451300.0,174521.0
567052.4736013691,400885.0,435067.0,450669.0,174517.0
567052.4919272611,400354.0,434345.0,449979.0,174544.0
567052.5102531532,399786.0,433593.0,449363.0,174476.0
567052.5285790452,399201.0,432886.0,448646.0,174475.0
567052.5469049372,398730.0,432185.0,448010.0,174511.0
567052.5652308293,398282.0,431635.0,447460.0,174506.0
567052.5835567215,397869.0,430978.0,446863.0,174469.0
567052.6018826135,397530.0,430574.0,446521.0,174484.0
567052.6202085055,397285.0,430308.0,446278.0,174529.0
567052.6385343976,397198.0,430134.0,446114.0,174529.0
567052.6568602896,397204.0,430111.0,446176.0,174554.0
567052.6751861818,397244.0,430165.0,446276.0,174499.0
567052.6935120738,397362.0,430317.0,446448.0,174538.0
567052.7118379659,397498.0,430455.0,446566.0,174556.0
567052.7301638579,397591.0,430489.0,446606.0,174515.0
567052.74848975,397663.0,430625.0,446722.0,174506.0
567052.766815642,397733.0,430813.0,446960.0,174528.0
567052.7851415342,397872.0,430954.0,447040.0,174529.0
567052.8034674262,398048.0,431119.0,447274.0,174580.0
567052.8217933183,398159.0,431268.0,447433.0,174539.0
567052.8401192103,398315.0,431532.0,447675.0,174532.0
567052.8584451023,398461.0,431716.0,447966.0,174529.0
567052.8767709944,398549.0,431926.0,448117.0,174482.0
567052.8950968866,398741.0,432094.0,448267.0,174488.0
567052.9134227786,398919.0,432338.0,448496.0,174507.0
567052.9317486706,399083.0,432488.0,448676.0,174494.0
567052.9500745627,399234.0,432752.0,448939.0,174478.0
567052.9684004547,399421.0,432978.0,449242.0,174529.0
567052.9867263468,399566.0,433175.0,449418.0,174522.0
567053.0050522389,399728.0,433404.0,449658.0,174532.0
567053.023378131,399860.0,433595.0,449859.0,174525.0
567053.041704023,399954.0,433774.0,450038.0,174517.0
567053.0600299151,400153.0,433995.0,450222.0,174583.0
567053.0783558071,400264.0,434197.0,450424.0,174532.0
567053.0966816992,400439.0,434435.0,450688.0,174525.0
567053.1150075913,400583.0,434621.0,450913.0,174557.0
567053.1333334834,400770.0,434882.0,451116.0,174506.0
567053.1516593754,400975.0,435112.0,451365.0,174566.0
567053.1699852675,401076.0,435356.0,451589.0,174496.0
567053.1883111595,401208.0,435581.0,451778.0,174464.0
567053.2066370515,401299.0,435663.0,451901.0,174453.0
567053.2249629437,401219.0,435500.0,451764.0,174487.0
567053.2432888357,400890.0,435168.0,451331.0,174589.0
567053.2616147278,400457.0,434593.0,450766.0,174538.0
567053.2799406198,399952.0,433995.0,450191.0,174523.0
567053.2982665119,399477.0,433308.0,449617.0,174503.0
567053.3165924039,398933.0,432598.0,448941.0,174440.0
567053.3349182961,398479.0,432077.0,448389.0,174474.0
567053.3532441881,398031.0,431516.0,447814.0,174434.0
567053.3715700802,397682.0,430995.0,447339.0,174469.0
567053.3898959722,397334.0,430606.0,447020.0,174504.0
567053.4082218643,397058.0,430179.0,446705.0,174500.0
567053.4265477563,396959.0,430000.0,446597.0,174526.0
567053.4448736485,396952.0,429946.0,446488.0,174499.0
567053.4631995405,397029.0,430040.0,446617.0,174468.0
567053.4815254326,397064.0,430145.0,446756.0,174477.0
567053.4998513246,397156.0,430297.0,446863.0,174431.0
567053.5181772166,397325.0,430480.0,447020.0,174474.0
567053.5365031088,397436.0,430589.0,447166.0,174490.0
567053.5548290008,397593.0,430730.0,447299.0,174501.0
567053.5731548929,397664.0,430825.0,447403.0,174472.0
567053.5914807849,397903.0,431101.0,447621.0,174524.0
567053.609806677,398107.0,431322.0,447866.0,174509.0
567053.628132569,398321.0,431490.0,448041.0,174524.0
567053.6464584612,398480.0,431743.0,448313.0,174522.0
567053.6647843532,398541.0,431983.0,448494.0,174472.0
567053.6831102453,398711.0,432246.0,448781.0,174518.0
567053.7014361373,398887.0,432493.0,449013.0,174526.0
567053.7197620294,399087.0,432735.0,449232.0,174586.0
567053.7380879214,399352.0,433076.0,449529.0,174483.0
567053.7564138136,399499.0,433346.0,449773.0,174469.0
567053.7747397056,399694.0,433575.0,450027.0,174478.0
567053.7930655977,399953.0,433857.0,450303.0,174500.0
567053.8113914897,400180.0,434198.0,450638.0,174512.0
567053.8297173817,400432.0,434500.0,450928.0,174551.0
567053.8480432738,400648.0,434795.0,451158.0,174488.0
567053.866369166,400800.0,435064.0,451382.0,174455.0
567053.884695058,401055.0,435388.0,451686.0,174522.0
567053.90302095,401318.0,435667.0,451982.0,174581.0
567053.9213468421,401449.0,435870.0,452226.0,174552.0
567053.9396727341,401662.0,436203.0,452534.0,174556.0
567053.9579986262,401851.0,436415.0,452723.0,174551.0
567053.9763245183,402184.0,436823.0,453084.0,174570.0
567053.9946504104,402385.0,437120.0,453398.0,174557.0
567054.0129763024,402666.0,437414.0,453721.0,174580.0
567054.0313021945,402778.0,437616.0,453877.0,174536.0
567054.0496280865,402678.0,437554.0,453756.0,174537.0
567054.0679539785,402423.0,437200.0,453372.0,174518.0
567054.0862798707,402037.0,436664.0,452846.0,174583.0
567054.1046057628,401478.0,435912.0,452204.0,174561.0
567054.1229316548,400947.0,435242.0,451515.0,174546.0
567054.1412575468,400301.0,434430.0,450794.0,174498.0
567054.1595834389,399827.0,433725.0,450126.0,174534.0
567054.1779093309,399245.0,432974.0,449421.0,174544.0
567054.1962352231,398819.0,432319.0,448817.0,174519.0
567054.2145611151,398403.0,431706.0,448281.0,174550.0
567054.2328870072,398052.0,431223.0,447798.0,174588.0
567054.2512128992,397727.0,430739.0,447431.0,174563.0
567054.2695387913,397579.0,430581.0,447196.0,174521.0
567054.2878646834,397518.0,430394.0,447116.0,174495.0
567054.3061905755,397624.0,430491.0,447265.0,174557.0
567054.3245164675,397743.0,430597.0,447299.0,174572.0
567054.3428423596,397835.0,430743.0,447434.0,174570.0
567054.3611682516,397985.0,430846.0,447519.0,174584.0
567054.3794941436,397996.0,430909.0,447561.0,174533.0
567054.3978200358,398098.0,430979.0,447714.0,174546.0
567054.4161459279,398187.0,431148.0,447835.0,174523.0
567054.4344718199,398295.0,431310.0,447973.0,174520.0
567054.452797712,398495.0,431524.0,448123.0,174524.0
567054.471123604,398643.0,431668.0,448312.0,174499.0
567054.489449496,398860.0,431930.0,448569.0,174550.0
567054.5077753882,398992.0,432164.0,448752.0,174522.0
567054.5261012802,399178.0,432381.0,448967.0,174549.0
567054.5444271723,399417.0,432612.0,449195.0,174571.0
567054.5627530643,399577.0,432871.0,449457.0,174600.0
567054.5810789564,399810.0,433051.0,449656.0,174553.0
567054.5994048484,400015.0,433346.0,449932.0,174537.0
567054.6177307406,400229.0,433638.0,450189.0,174500.0
567054.6360566326,400443.0,433869.0,450424.0,174559.0
567054.6543825247,400617.0,434208.0,450729.0,174552.0
567054.6727084167,400910.0,434435.0,450968.0,174512.0
567054.6910343088,401021.0,434709.0,451232.0,174455.0
567054.7093602008,401290.0,434958.0,451500.0,174540.0
567054.727686093,401567.0,435256.0,451785.0,174559.0
567054.746011985,401698.0,435503.0,451996.0,174573.0
567054.764337877,401884.0,435783.0,452227.0,174538.0
567054.7826637691,402081.0,436041.0,452434.0,174558.0
567054.8009896611,402336.0,436303.0,452704.0,174558.0
567054.8193155532,402507.0,436530.0,453011.0,174537.0
567054.8376414453,402723.0,436806.0,453250.0,174556.0
567054.8559673374,402991.0,437109.0,453561.0,174510.0
567054.8742932294,403111.0,437356.0,453702.0,174540.0
567054.8926191215,403054.0,437260.0,453660.0,174575.0
567054.9109450135,402771.0,436789.0,453186.0,174506.0
567054.9292709056,402331.0,436191.0,452607.0,174492.0
567054.9475967977,401862.0,435571.0,451936.0,174537.0
567054.9659226898,401277.0,434758.0,451256.0,174561.0
567054.9842485818,400665.0,433971.0,450480.0,174570.0
567055.0025744739,400081.0,433163.0,449717.0,174567.0
567055.0209003659,399480.0,432391.0,448987.0,174502.0
567055.0392262579,398992.0,431647.0,448258.0,174520.0
567055.0575521501,398443.0,430960.0,447589.0,174524.0
567055.0758780421,398103.0,430326.0,447068.0,174504.0
567055.0942039342,397753.0,429913.0,446625.0,174517.0
567055.1125298262,397581.0,429603.0,446365.0,174520.0
567055.1308557183,397478.0,429476.0,446260.0,174483.0
567055.1491816104,397514.0,429515.0,446230.0,174504.0
567055.1675075025,397636.0,429625.0,446363.0,174536.0
567055.1858333945,397741.0,429629.0,446389.0,174555.0
567055.2041592866,397809.0,429745.0,446444.0,174526.0
567055.2224851786,397963.0,429838.0,446589.0,174541.0
567055.2408110707,398099.0,429982.0,446699.0,174559.0
567055.2591369628,398236.0,430120.0,446770.0,174589.0
567055.2774628549,398273.0,430293.0,446908.0,174523.0
567055.2957887469,398394.0,430491.0,447071.0,174483.0
567055.314114639,398534.0,430627.0,447215.0,174475.0
567055.332440531,398722.0,430848.0,447438.0,174512.0
567055.350766423,398924.0,431092.0,447644.0,174526.0
567055.3690923152,399126.0,431340.0,447827.0,174489.0
567055.3874182072,399362.0,431527.0,448059.0,174610.0
567055.4057440993,399519.0,431846.0,448320.0,174567.0
567055.4240699913,399743.0,432131.0,448551.0,174536.0
567055.4423958834,399952.0,432371.0,448771.0,174587.0
567055.4607217754,400076.0,432573.0,448989.0,174526.0
567055.4790476676,400299.0,432869.0,449300.0,174504.0
567055.4973735596,400571.0,433219.0,449551.0,174539.0
567055.5156994517,400868.0,433469.0,449794.0,174526.0
567055.5340253437,400918.0,433720.0,450021.0,174472.0
567055.5523512358,401186.0,433964.0,450305.0,174488.0
567055.5706771278,401441.0,434229.0,450597.0,174546.0
567055.58900302,401577.0,434497.0,450791.0,174536.0
567055.607328912,401778.0,434781.0,451018.0,174540.0
567055.625654804,402062.0,435061.0,451288.0,174573.0
567055.6439806961,402214.0,435294.0,451482.0,174570.0
567055.6623065881,402427.0,435544.0,451833.0,174539.0
567055.6806324802,402596.0,435880.0,452061.0,174490.0
567055.6989583723,402874.0,436213.0,452307.0,174566.0
567055.7172842644,403026.0,436387.0,452499.0,174522.0
567055.7356101564,402980.0,436324.0,452408.0,174528.0
567055.7539360485,402637.0,435953.0,451964.0,174476.0
567055.7722619405,402245.0,435366.0,451479.0,174508.0
567055.7905878326,401682.0,434675.0,450777.0,174516.0
567055.8089137247,401157.0,433873.0,450019.0,174523.0
567055.8272396168,400617.0,433112.0,449332.0,174524.0
567055.8455655088,400117.0,432374.0,448603.0,174496.0
567055.8638914009,399563.0,431672.0,447920.0,174502.0
567055.8822172929,399112.0,431009.0,447286.0,174443.0
567055.900543185,398710.0,430467.0,446808.0,174575.0
567055.9188690771,398362.0,429966.0,446261.0,174554.0
567055.9371949692,398077.0,429590.0,445905.0,174558.0
567055.9555208612,397966.0,429408.0,445723.0,174583.0
567055.9738467532,397965.0,429288.0,445667.0,174540.0
567055.9921726453,397962.0,429369.0,445709.0,174521.0
567056.0104985374,398080.0,429403.0,445751.0,174551.0
567056.0288244295,398149.0,429557.0,445855.0,174578.0
567056.0471503215,398252.0,429664.0,445939.0,174529.0
567056.0654762136,398387.0,429751.0,446035.0,174574.0
567056.0838021056,398424.0,429872.0,446121.0,174569.0
567056.1021279977,398497.0,430043.0,446214.0,174536.0
567056.1204538898,398594.0,430121.0,446385.0,174540.0
567056.1387797819,398739.0,430188.0,446482.0,174520.0
567056.1571056739,398898.0,430444.0,446711.0,174507.0
567056.175431566,399061.0,430636.0,446912.0,174452.0
567056.193757458,399258.0,430814.0,447096.0,174516.0
567056.21208335,399391.0,430975.0,447214.0,174502.0
567056.2304092422,399571.0,431269.0,447452.0,174547.0
567056.2487351343,399728.0,431461.0,447609.0,174506.0
567056.2670610263,399861.0,431672.0,447873.0,174523.0
567056.2853869183,400093.0,431933.0,448108.0,174509.0
567056.3037128104,400226.0,432148.0,448391.0,174486.0
567056.3220387024,400493.0,432456.0,448591.0,174545.0
567056.3403645946,400633.0,432675.0,448827.0,174515.0
567056.3586904866,400838.0,432973.0,449099.0,174570.0
567056.3770163787,400962.0,433138.0,449279.0,174529.0
567056.3953422707,401224.0,433469.0,449557.0,174586.0
567056.4136681628,401346.0,433615.0,449694.0,174540.0
567056.4319940548,401502.0,433846.0,449881.0,174551.0
567056.450319947,401686.0,434104.0,450161.0,174550.0
567056.468645839,401822.0,434325.0,450287.0,174518.0
567056.4869717311,402036.0,434545.0,450544.0,174501.0
567056.5052976231,402208.0,434806.0,450832.0,174535.0
567056.5236235152,402412.0,435046.0,450981.0,174504.0
567056.5419494072,402483.0,435251.0,451170.0,174478.0
567056.5602752994,402601.0,435341.0,451256.0,174539.0
567056.5786011914,402443.0,435061.0,450985.0,174512.0
567056.5969270834,402095.0,434663.0,450548.0,174562.0
567056.6152529755,401591.0,434095.0,449998.0,174628.0
567056.6335788675,401062.0,433324.0,449244.0,174529.0
567056.6519047596,400494.0,432608.0,448566.0,174485.0
567056.6702306517,400034.0,431903.0,447916.0,174549.0
567056.6885565438,399601.0,431337.0,447301.0,174576.0
567056.7068824358,399068.0,430697.0,446740.0,174576.0
567056.7252083279,398723.0,430175.0,446170.0,174560.0
567056.7435342199,398308.0,429704.0,445681.0,174524.0
567056.7618601121,398043.0,429235.0,445286.0,174522.0
567056.7801860041,397881.0,429012.0,445073.0,174533.0
567056.7985118962,397823.0,428940.0,445021.0,174494.0
567056.8168377882,397796.0,428951.0,444996.0,174527.0
567056.8351636803,397890.0,429041.0,445130.0,174506.0
567056.8534895723,397922.0,429082.0,445166.0,174494.0
567056.8718154645,398024.0,429195.0,445163.0,174472.0
567056.8901413565,398081.0,429270.0,445265.0,174510.0
567056.9084672485,398104.0,429338.0,445358.0,174501.0
567056.9267931406,398242.0,429478.0,445431.0,174524.0
567056.9451190326,398351.0,429616.0,445557.0,174496.0
567056.9634449247,398467.0,429785.0,445649.0,174508.0
567056.9817708168,398540.0,429921.0,445769.0,174476.0
567057.0000967089,398702.0,430061.0,445931.0,174486.0
567057.0184226009,398795.0,430184.0,446105.0,174502.0
567057.036748493,398909.0,430372.0,446269.0,174504.0
567057.055074385,398970.0,430579.0,446399.0,174491.0
567057.0734002771,399178.0,430762.0,446582.0,174515.0
567057.0917261692,399242.0,430984.0,446719.0,174457.0
567057.1100520613,399393.0,431149.0,446978.0,174509.0
567057.1283779533,399612.0,431452.0,447201.0,174493.0
567057.1467038454,399701.0,431655.0,447373.0,174504.0
567057.1650297374,399898.0,431852.0,447589.0,174491.0
567057.1833556294,399963.0,431995.0,447734.0,174486.0
567057.2016815216,400127.0,432137.0,447859.0,174509.0
567057.2200074136,400246.0,432361.0,448047.0,174524.0
567057.2383333057,400377.0,432561.0,448280.0,174499.0
567057.2566591977,400550.0,432822.0,448447.0,174535.0
567057.2749850898,400669.0,432988.0,448603.0,174513.0
567057.2933109818,400866.0,433245.0,448835.0,174658.0
567057.311636874,400995.0,433542.0,449133.0,174628.0
567057.329962766,401158.0,433772.0,449333.0,174635.0
567057.3482886581,401282.0,433980.0,449552.0,174592.0
567057.3666145501,401323.0,434027.0,449614.0,174539.0
567057.3849404422,401200.0,433812.0,449396.0,174540.0
567057.4032663342,400888.0,433364.0,448935.0,174542.0
567057.4215922264,400441.0,432808.0,448406.0,174469.0
567057.4399181184,399942.0,432258.0,447775.0,174491.0
567057.4582440105,399436.0,431650.0,447187.0,174474.0
567057.4765699025,398952.0,431059.0,446581.0,174459.0
567057.4948957945,398492.0,430564.0,445983.0,174404.0
567057.5132216866,398190.0,430097.0,445428.0,174475.0
567057.5315475788,397797.0,429661.0,444983.0,174528.0
567057.5498734708,397554.0,429237.0,444616.0,174517.0
567057.5681993628,397365.0,428961.0,444270.0,174540.0
567057.5865252549,397156.0,428752.0,444059.0,174437.0
567057.6048511469,397209.0,428777.0,444082.0,174465.0
567057.6231770391,397329.0,428880.0,444128.0,174465.0
567057.6415029311,397411.0,428979.0,444245.0,174451.0
567057.6598288232,397571.0,429182.0,444416.0,174506.0
567057.6781547152,397617.0,429375.0,444498.0,174515.0
567057.6964806073,397667.0,429409.0,444646.0,174455.0
567057.7148064993,397783.0,429538.0,444710.0,174455.0
567057.7331323915,397939.0,429736.0,444875.0,174509.0
567057.7514582835,398029.0,429884.0,445005.0,174452.0
567057.7697841756,398222.0,430140.0,445237.0,174506.0
567057.7881100676,398385.0,430372.0,445385.0,174508.0
567057.8064359596,398567.0,430642.0,445612.0,174495.0
567057.8247618517,398712.0,430856.0,445811.0,174461.0
567057.8430877439,398911.0,431139.0,446091.0,174511.0
567057.8614136359,399136.0,431361.0,446274.0,174489.0
567057.8797395279,399279.0,431664.0,446560.0,174540.0
567057.89806542,399454.0,431901.0,446792.0,174538.0
567057.916391312,399645.0,432246.0,447051.0,174525.0
567057.9347172041,399866.0,432496.0,447311.0,174533.0
567057.9530430962,400081.0,432758.0,447556.0,174562.0
567057.9713689883,400279.0,433071.0,447852.0,174532.0
567057.9896948803,400446.0,433392.0,448042.0,174500.0
567058.0080207724,400670.0,433666.0,448314.0,174536.0
567058.0263466644,400843.0,433911.0,448569.0,174537.0
567058.0446725565,401090.0,434169.0,448803.0,174483.0
567058.0629984486,401246.0,434490.0,449079.0,174508.0
567058.0813243407,401358.0,434755.0,449310.0,174485.0
567058.0996502327,401605.0,435038.0,449563.0,174499.0
567058.1179761247,401825.0,435355.0,449840.0,174507.0
567058.1363020168,402098.0,435673.0,450173.0,174508.0
567058.1546279088,402227.0,435908.0,450330.0,174478.0
567058.172953801,402391.0,436107.0,450576.0,174491.0
567058.191279693,402448.0,436194.0,450515.0,174512.0
567058.2096055851,402195.0,435927.0,450234.0,174469.0
567058.2279314771,401839.0,435452.0,449752.0,174584.0
567058.2462573692,401284.0,434908.0,449087.0,174558.0
567058.2645832612,400833.0,434218.0,448399.0,174534.0
567058.2829091534,400261.0,433506.0,447774.0,174502.0
567058.3012350454,399795.0,432826.0,447071.0,174500.0
567058.3195609375,399264.0,432161.0,446420.0,174432.0
567058.3378868295,398801.0,431614.0,445881.0,174506.0
567058.3562127216,398389.0,431051.0,445382.0,174475.0
567058.3745386136,398147.0,430641.0,444935.0,174524.0
567058.3928645058,397860.0,430314.0,444584.0,174523.0
567058.4111903978,397613.0,430072.0,444341.0,174456.0
567058.4295162898,397584.0,429978.0,444293.0,174503.0
567058.4478421819,397647.0,430011.0,444336.0,174457.0
567058.4661680739,397706.0,430167.0,444455.0,174508.0
567058.4844939661,397841.0,430341.0,444615.0,174490.0
567058.5028198581,397953.0,430464.0,444793.0,174499.0
567058.5211457502,397988.0,430516.0,444881.0,174457.0
567058.5394716422,398127.0,430659.0,444999.0,174508.0
567058.5577975343,398264.0,430871.0,445070.0,174490.0
567058.5761234263,398454.0,431085.0,445245.0,174551.0
567058.5944493185,398540.0,431246.0,445473.0,174535.0
567058.6127752105,398671.0,431479.0,445668.0,174532.0
567058.6311011026,398784.0,431724.0,445885.0,174471.0
567058.6494269946,399020.0,432011.0,446138.0,174465.0
567058.6677528867,399182.0,432220.0,446332.0,174490.0
567058.6860787787,399459.0,432457.0,446564.0,174454.0
567058.7044046709,399660.0,432778.0,446849.0,174484.0
567058.7227305629,399853.0,433052.0,447122.0,174495.0
567058.741056455,400066.0,433360.0,447390.0,174521.0
567058.759382347,400256.0,433635.0,447659.0,174526.0
567058.777708239,400457.0,433918.0,447899.0,174464.0
567058.7960341311,400630.0,434247.0,448154.0,174449.0
567058.8143600232,400886.0,434520.0,448432.0,174461.0
567058.8326859153,401082.0,434847.0,448788.0,174542.0
567058.8510118073,401212.0,435037.0,448941.0,174426.0
567058.8693376994,401413.0,435306.0,449175.0,174475.0
567058.8876635914,401654.0,435580.0,449486.0,174498.0
567058.9059894835,401845.0,435836.0,449708.0,174488.0
567058.9243153756,402011.0,436069.0,449979.0,174498.0
567058.9426412677,402214.0,436408.0,450323.0,174500.0
567058.9609671597,402447.0,436736.0,450570.0,174528.0
567058.9792930518,402613.0,436996.0,450814.0,174499.0
567058.9976189438,402781.0,437273.0,451115.0,174495.0
567059.0159448358,402945.0,437395.0,451238.0,174493.0
567059.034270728,402782.0,437267.0,450991.0,174479.0
567059.05259662,402510.0,436846.0,450599.0,174556.0
567059.0709225121,402086.0,436300.0,450029.0,174482.0
567059.0892484041,401602.0,435730.0,449449.0,174546.0
567059.1075742962,401030.0,435010.0,448718.0,174491.0
567059.1259001882,400437.0,434279.0,448020.0,174496.0
567059.1442260804,399870.0,433593.0,447310.0,174513.0
567059.1625519724,399443.0,432943.0,446714.0,174554.0
567059.1808778645,398991.0,432338.0,446168.0,174551.0
567059.1992037565,398506.0,431785.0,445607.0,174474.0
567059.2175296486,398216.0,431326.0,445226.0,174484.0
567059.2358555407,397973.0,431005.0,444893.0,174440.0
567059.2541814328,397795.0,430820.0,444773.0,174430.0
567059.2725073248,397859.0,430826.0,444790.0,174502.0
567059.2908332169,397882.0,430865.0,444849.0,174475.0
567059.3091591089,397917.0,430951.0,444916.0,174448.0
567059.327485001,398038.0,431090.0,445041.0,174536.0
567059.3458108931,398047.0,431155.0,445139.0,174492.0
567059.3641367852,398192.0,431254.0,445288.0,174525.0
567059.3824626772,398267.0,431427.0,445386.0,174508.0
567059.4007885692,398423.0,431586.0,445583.0,174467.0
567059.4191144613,398552.0,431809.0,445762.0,174504.0
567059.4374403533,398741.0,431938.0,445981.0,174525.0
567059.4557662455,398854.0,432143.0,446116.0,174477.0
567059.4740921375,399020.0,432366.0,446343.0,174478.0
567059.4924180296,399245.0,432648.0,446615.0,174477.0
567059.5107439216,399370.0,432846.0,446890.0,174534.0
567059.5290698137,399570.0,433094.0,447013.0,174504.0
567059.5473957057,399719.0,433325.0,447347.0,174516.0
567059.5657215979,399923.0,433558.0,447530.0,174530.0
567059.5840474899,400047.0,433859.0,447866.0,174502.0
567059.602373382,400290.0,434173.0,448108.0,174539.0
567059.620699274,400469.0,434405.0,448320.0,174503.0
567059.639025166,400718.0,434662.0,448604.0,174484.0
567059.6573510581,400909.0,434981.0,448834.0,174493.0
567059.6756769503,401066.0,435254.0,449121.0,174505.0
567059.6940028423,401261.0,435510.0,449376.0,174509.0
567059.7123287343,401388.0,435766.0,449624.0,174495.0
567059.7306546264,401594.0,436017.0,449853.0,174549.0
567059.7489805184,401815.0,436262.0,450122.0,174606.0
567059.7673064105,401960.0,436520.0,450408.0,174550.0
567059.7856323026,402174.0,436750.0,450659.0,174498.0
567059.8039581947,402378.0,437068.0,450918.0,174489.0
567059.8222840867,402629.0,437366.0,451209.0,174525.0
567059.8406099788,402770.0,437554.0,451376.0,174522.0
567059.8589358708,402811.0,437609.0,451429.0,174506.0
567059.8772617629,402599.0,437349.0,451195.0,174484.0
567059.895587655,402122.0,436773.0,450656.0,174483.0
567059.9139135471,401673.0,436211.0,450129.0,174536.0
567059.9322394391,401154.0,435481.0,449471.0,174486.0
567059.9505653311,400586.0,434799.0,448711.0,174447.0
567059.9688912232,400038.0,434102.0,448101.0,174510.0
567059.9872171152,399566.0,433334.0,447427.0,174510.0
567060.0055430074,399037.0,432674.0,446747.0,174509.0
567060.0238688994,398604.0,432053.0,446245.0,174517.0
567060.0421947915,398172.0,431542.0,445750.0,174506.0
567060.0605206835,397867.0,431113.0,445411.0,174484.0
567060.0788465756,397648.0,430816.0,445238.0,174477.0
567060.0971724677,397596.0,430711.0,445196.0,174541.0
567060.1154983598,397607.0,430651.0,445160.0,174496.0
567060.1338242518,397635.0,430728.0,445232.0,174566.0
567060.1521501439,397769.0,430771.0,445328.0,174498.0
567060.1704760359,397820.0,430890.0,445439.0,174453.0
567060.188801928,397873.0,430971.0,445482.0,174519.0
567060.2071278201,397976.0,431045.0,445611.0,174485.0
567060.2254537122,398082.0,431207.0,445770.0,174483.0
567060.2437796042,398177.0,431227.0,445875.0,174489.0
567060.2621054963,398190.0,431361.0,445997.0,174419.0
567060.2804313883,398356.0,431538.0,446218.0,174455.0
567060.2987572803,398565.0,431735.0,446407.0,174488.0
567060.3170831725,398609.0,431920.0,446579.0,174510.0
567060.3354090645,398702.0,432068.0,446764.0,174450.0
567060.3537349566,398936.0,432297.0,446974.0,174483.0
567060.3720608486,399069.0,432531.0,447219.0,174491.0
567060.3903867407,399196.0,432716.0,447379.0,174521.0
567060.4087126327,399405.0,432909.0,447593.0,174492.0
567060.4270385249,399615.0,433189.0,447827.0,174515.0
567060.4453644169,399730.0,433317.0,448053.0,174513.0
567060.463690309,399866.0,433601.0,448330.0,174488.0
567060.482016201,400060.0,433797.0,448569.0,174488.0
567060.5003420931,400210.0,434006.0,448772.0,174413.0
567060.5186679851,400367.0,434184.0,448969.0,174513.0
567060.5369938773,400430.0,434332.0,449181.0,174464.0
567060.5553197693,400553.0,434524.0,449348.0,174471.0
567060.5736456614,400679.0,434697.0,449541.0,174481.0
567060.5919715534,400913.0,434899.0,449792.0,174461.0
567060.6102974454,401120.0,435163.0,450011.0,174526.0
567060.6286233375,401306.0,435344.0,450263.0,174510.0
567060.6469492296,401470.0,435623.0,450469.0,174486.0
567060.6652751217,401521.0,435825.0,450659.0,174473.0
567060.6836010137,401566.0,435842.0,450661.0,174487.0
567060.7019269058,401395.0,435668.0,450489.0,174464.0
567060.7202527978,401085.0,435166.0,450018.0,174475.0
567060.7385786899,400606.0,434555.0,449488.0,174533.0
567060.756904582,400028.0,433888.0,448802.0,174483.0
567060.7752304741,399518.0,433165.0,448174.0,174422.0
567060.7935563661,399016.0,432510.0,447560.0,174404.0
567060.8118822582,398539.0,431826.0,446982.0,174436.0
567060.8302081502,398116.0,431314.0,446499.0,174474.0
567060.8485340424,397740.0,430798.0,446003.0,174525.0
567060.8668599344,397370.0,430325.0,445639.0,174499.0
567060.8851858265,397095.0,429969.0,445306.0,174510.0
567060.9035117185,396984.0,429778.0,445161.0,174509.0
567060.9218376105,396954.0,429761.0,445145.0,174488.0
567060.9401635026,397010.0,429776.0,445192.0,174447.0
567060.9584893947,397089.0,429870.0,445339.0,174473.0
567060.9768152868,397168.0,429923.0,445393.0,174538.0
567060.9951411788,397225.0,429972.0,445479.0,174558.0
567061.0134670709,397227.0,430021.0,445564.0,174495.0
567061.0317929629,397340.0,430182.0,445703.0,174496.0
567061.050118855,397448.0,430251.0,445843.0,174534.0
567061.0684447471,397444.0,430273.0,445881.0,174450.0
567061.0867706392,397525.0,430491.0,446057.0,174433.0
567061.1050965312,397659.0,430649.0,446177.0,174414.0
567061.1234224233,397831.0,430799.0,446416.0,174423.0
567061.1417483153,397991.0,431040.0,446581.0,174457.0
567061.1600742073,398163.0,431247.0,446786.0,174481.0
567061.1784000995,398211.0,431414.0,446990.0,174458.0
567061.1967259916,398354.0,431692.0,447206.0,174471.0
567061.2150518836,398552.0,431978.0,447436.0,174460.0
567061.2333777756,398799.0,432247.0,447692.0,174507.0
567061.2517036677,398939.0,432370.0,447829.0,174417.0
567061.2700295597,399110.0,432649.0,448160.0,174458.0
567061.2883554519,399328.0,432898.0,448386.0,174420.0
567061.3066813439,399505.0,433184.0,448655.0,174516.0
567061.325007236,399609.0,433367.0,448798.0,174468.0
567061.343333128,399785.0,433621.0,449109.0,174468.0
567061.3616590201,399981.0,433838.0,449242.0,174511.0
567061.3799849121,400092.0,434077.0,449490.0,174475.0
567061.3983108043,400322.0,434302.0,449771.0,174506.0
567061.4166366963,400518.0,434617.0,450002.0,174488.0
567061.4349625884,400725.0,434890.0,450268.0,174434.0
567061.4532884804,401003.0,435235.0,450562.0,174500.0
567061.4716143725,401068.0,435473.0,450838.0,174462.0
567061.4899402645,401258.0,435616.0,450927.0,174436.0
567061.5082661567,401165.0,435617.0,450925.0,174448.0
567061.5265920487,401013.0,435279.0,450651.0,174456.0
567061.5449179407,400622.0,434827.0,450079.0,174456.0
567061.5632438328,400117.0,434238.0,449495.0,174478.0
567061.5815697248,399680.0,433632.0,448979.0,174506.0
567061.5998956169,399211.0,432979.0,448445.0,174501.0
567061.618221509,398717.0,432381.0,447831.0,174494.0
567061.6365474011,398301.0,431790.0,447281.0,174525.0
567061.6548732931,397922.0,431285.0,446813.0,174524.0
567061.6731991852,397607.0,430875.0,446402.0,174524.0
567061.6915250772,397289.0,430411.0,446042.0,174485.0
567061.7098509694,397055.0,430136.0,445802.0,174511.0
567061.7281768614,397016.0,430086.0,445726.0,174495.0
567061.7465027535,397118.0,430096.0,445795.0,174530.0
567061.7648286455,397177.0,430165.0,445958.0,174539.0
567061.7831545376,397240.0,430286.0,446061.0,174481.0
567061.8014804296,397304.0,430392.0,446192.0,174498.0
567061.8198063218,397488.0,430553.0,446283.0,174496.0
567061.8381322138,397569.0,430692.0,446453.0,174441.0
567061.8564581058,397641.0,430833.0,446599.0,174519.0
567061.8747839979,397802.0,430962.0,446805.0,174541.0
567061.8931098899,397984.0,431223.0,446993.0,174490.0
567061.911435782,398134.0,431434.0,447232.0,174495.0
567061.9297616741,398256.0,431674.0,447402.0,174519.0
567061.9480875662,398521.0,431907.0,447680.0,174501.0
567061.9664134582,398648.0,432177.0,447908.0,174476.0
567061.9847393503,398894.0,432422.0,448161.0,174499.0
567062.0030652423,399121.0,432727.0,448425.0,174532.0
567062.0213911344,399296.0,432975.0,448711.0,174533.0
567062.0397170265,399482.0,433316.0,448979.0,174505.0
567062.0580429186,399775.0,433620.0,449336.0,174517.0
567062.0763688106,400002.0,433913.0,449610.0,174553.0
567062.0946947027,400227.0,434168.0,449847.0,174501.0
567062.1130205947,400408.0,434456.0,450125.0,174482.0
567062.1313464867,400570.0,434740.0,450399.0,174505.0
567062.1496723789,400758.0,435055.0,450673.0,174496.0
567062.167998271,401092.0,435374.0,450985.0,174581.0
567062.186324163,401217.0,435589.0,451212.0,174535.0
567062.204650055,401490.0,435900.0,451551.0,174542.0
567062.2229759471,401675.0,436203.0,451812.0,174524.0
567062.2413018391,401835.0,436478.0,452041.0,174520.0
567062.2596277313,402028.0,436705.0,452307.0,174465.0
567062.2779536233,402232.0,437038.0,452570.0,174442.0
567062.2962795154,402504.0,437361.0,452926.0,174465.0
567062.3146054074,402706.0,437642.0,453215.0,174460.0
567062.3329312995,402779.0,437767.0,453245.0,174512.0
567062.3512571915,402653.0,437717.0,453201.0,174505.0
567062.3695830837,402382.0,437311.0,452694.0,174461.0
567062.3879089757,401970.0,436712.0,452147.0,174490.0
567062.4062348678,401440.0,436047.0,451542.0,174469.0
567062.4245607598,400932.0,435342.0,450845.0,174452.0
567062.4428866518,400418.0,434675.0,450238.0,174503.0
567062.4612125439,399827.0,433971.0,449585.0,174506.0
567062.479538436,399356.0,433246.0,448965.0,174513.0
567062.4978643281,398887.0,432654.0,448381.0,174487.0
567062.5161902201,398480.0,432080.0,447853.0,174456.0
567062.5345161122,398158.0,431691.0,447511.0,174482.0
567062.5528420042,397863.0,431328.0,447171.0,174429.0
567062.5711678964,397800.0,431096.0,447007.0,174490.0
567062.5894937884,397865.0,431129.0,447128.0,174527.0
567062.6078196805,397891.0,431140.0,447171.0,174521.0
567062.6261455725,398021.0,431268.0,447256.0,174526.0
567062.6444714646,398141.0,431374.0,447417.0,174562.0
567062.6627973566,398194.0,431477.0,447529.0,174538.0
567062.6811232488,398384.0,431686.0,447711.0,174561.0
567062.6994491408,398524.0,431840.0,447917.0,174495.0
567062.7177750329,398576.0,431962.0,448032.0,174544.0
567062.7361009249,398716.0,432143.0,448186.0,174501.0
567062.754426817,398941.0,432409.0,448427.0,174558.0
567062.772752709,399084.0,432624.0,448621.0,174501.0
567062.7910786011,399318.0,432960.0,448888.0,174523.0
567062.8094044932,399574.0,433212.0,449197.0,174552.0
567062.8277303852,399742.0,433484.0,449434.0,174532.0
567062.8460562773,399980.0,433832.0,449697.0,174512.0
567062.8643821693,400122.0,433985.0,449907.0,174503.0
567062.8827080614,400281.0,434243.0,450113.0,174479.0
567062.9010339535,400546.0,434547.0,450457.0,174544.0
567062.9193598456,400709.0,434825.0,450760.0,174529.0
567062.9376857376,400903.0,435118.0,451001.0,174493.0
567062.9560116297,401137.0,435448.0,451271.0,174543.0
567062.9743375217,401390.0,435732.0,451613.0,174552.0
567062.9926634138,401550.0,435959.0,451862.0,174523.0
567063.0109893059,401798.0,436258.0,452146.0,174525.0
567063.029315198,401994.0,436600.0,452391.0,174498.0
567063.04764109,402153.0,436858.0,452669.0,174511.0
567063.065966982,402358.0,437097.0,452857.0,174500.0
567063.0842928741,402587.0,437400.0,453205.0,174483.0
567063.1026187661,402820.0,437694.0,453436.0,174471.0
567063.1209446583,403007.0,438000.0,453780.0,174486.0
567063.1392705503,403282.0,438306.0,454024.0,174478.0
567063.1575964424,403447.0,438507.0,454263.0,174494.0
567063.1759223344,403610.0,438797.0,454555.0,174501.0
567063.1942482265,403778.0,439028.0,454743.0,174457.0
567063.2125741185,403756.0,439049.0,454723.0,174470.0
567063.2309000107,403521.0,438767.0,454440.0,174467.0
567063.2492259027,403114.0,438174.0,453867.0,174520.0
567063.2675517948,402640.0,437569.0,453266.0,174534.0
567063.2858776868,402072.0,436846.0,452619.0,174506.0
567063.3042035789,401499.0,436112.0,451946.0,174503.0
567063.322529471,401012.0,435480.0,451262.0,174512.0
567063.340855363,400459.0,434740.0,450594.0,174476.0
567063.3591812551,399980.0,434149.0,450024.0,174447.0
567063.3775071471,399679.0,433672.0,449543.0,174489.0
567063.3958330392,399345.0,433168.0,449098.0,174479.0
567063.4141589312,399046.0,432732.0,448791.0,174495.0
567063.4324848234,398892.0,432572.0,448562.0,174537.0
567063.4508107154,398863.0,432509.0,448545.0,174487.0
567063.4691366075,398951.0,432566.0,448639.0,174558.0
567063.4874624995,399008.0,432609.0,448758.0,174517.0
567063.5057883916,399058.0,432672.0,448772.0,174447.0
567063.5241142836,399228.0,432843.0,448985.0,174449.0
567063.5424401758,399409.0,433078.0,449170.0,174461.0
567063.5607660678,399489.0,433132.0,449238.0,174538.0
567063.5790919599,399558.0,433360.0,449416.0,174437.0
567063.5974178519,399718.0,433542.0,449590.0,174505.0
567063.615743744,399923.0,433782.0,449818.0,174519.0
567063.634069636,400101.0,433978.0,449943.0,174543.0
567063.6523955282,400214.0,434195.0,450226.0,174520.0
567063.6707214202,400345.0,434360.0,450387.0,174495.0
567063.6890473122,400509.0,434648.0,450593.0,174438.0
567063.7073732043,400766.0,434932.0,450933.0,174535.0
567063.7256990963,400999.0,435250.0,451217.0,174524.0
567063.7440249884,401114.0,435492.0,451444.0,174471.0
567063.7623508805,401361.0,435823.0,451716.0,174506.0
567063.7806767726,401647.0,436075.0,452030.0,174512.0
567063.7990026646,401898.0,436353.0,452381.0,174478.0
567063.8173285567,402118.0,436664.0,452640.0,174506.0
567063.8356544487,402287.0,436943.0,452862.0,174481.0
567063.8539803408,402589.0,437258.0,453182.0,174535.0
567063.8723062329,402758.0,437582.0,453404.0,174553.0
567063.890632125,402925.0,437818.0,453684.0,174530.0
567063.908958017,403200.0,438086.0,453976.0,174574.0
567063.927283909,403292.0,438327.0,454182.0,174528.0
567063.9456098011,403532.0,438555.0,454449.0,174566.0
567063.9639356931,403688.0,438791.0,454720.0,174555.0
567063.9822615853,403913.0,439111.0,455011.0,174581.0
567064.0005874773,404076.0,439360.0,455244.0,174555.0
567064.0189133694,404345.0,439697.0,455532.0,174576.0
567064.0372392614,404527.0,439911.0,455853.0,174571.0
567064.0555651535,404736.0,440128.0,456077.0,174574.0
567064.0738910455,404740.0,440267.0,456171.0,174553.0
567064.0922169377,404700.0,440166.0,456022.0,174502.0
567064.1105428297,404428.0,439809.0,455609.0,174527.0
567064.1288687218,403992.0,439172.0,455071.0,174546.0
567064.1471946138,403462.0,438542.0,454370.0,174528.0
567064.1655205059,402908.0,437776.0,453751.0,174510.0
567064.183846398,402394.0,437096.0,453092.0,174522.0
567064.2021722901,401756.0,436392.0,452339.0,174527.0
567064.2204981821,401273.0,435675.0,451741.0,174530.0
567064.2388240742,400868.0,435029.0,451151.0,174516.0
567064.2571499662,400398.0,434492.0,450651.0,174515.0
567064.2754758582,400045.0,433957.0,450152.0,174467.0
567064.2938017504,399802.0,433656.0,449833.0,174554.0
567064.3121276424,399617.0,433394.0,449600.0,174526.0
567064.3304535345,399561.0,433322.0,449550.0,174498.0
567064.3487794265,399640.0,433375.0,449633.0,174567.0
567064.3671053186,399732.0,433445.0,449682.0,174555.0
567064.3854312106,399787.0,433502.0,449726.0,174534.0
567064.4037571028,399846.0,433549.0,449821.0,174544.0
567064.4220829948,399933.0,433607.0,449844.0,174560.0
567064.4404088869,400008.0,433697.0,449940.0,174542.0
567064.4587347789,400066.0,433780.0,450057.0,174493.0
567064.477060671,400170.0,433920.0,450198.0,174511.0
567064.495386563,400315.0,434055.0,450323.0,174530.0
567064.5137124552,400425.0,434228.0,450484.0,174517.0
567064.5320383472,400498.0,434406.0,450576.0,174449.0
567064.5503642393,400693.0,434660.0,450838.0,174529.0
567064.5686901313,400824.0,434820.0,451035.0,174566.0
567064.5870160233,400953.0,434992.0,451191.0,174539.0
567064.6053419154,401057.0,435148.0,451328.0,174493.0
567064.6236678076,401300.0,435376.0,451548.0,174491.0
567064.6419936996,401450.0,435550.0,451746.0,174474.0
567064.6603195916,401672.0,435768.0,451958.0,174504.0
567064.6786454837,401749.0,436030.0,452167.0,174472.0
567064.6969713757,401916.0,436152.0,452376.0,174455.0
567064.7152972678,402135.0,436420.0,452630.0,174483.0
567064.7336231599,402271.0,436635.0,452823.0,174451.0
567064.751949052,402473.0,436797.0,453031.0,174492.0
567064.770274944,402593.0,437044.0,453192.0,174485.0
567064.7886008361,402703.0,437222.0,453374.0,174477.0
567064.8069267281,402874.0,437377.0,453568.0,174440.0
567064.8252526202,403033.0,437614.0,453765.0,174465.0
567064.8435785123,403167.0,437760.0,453907.0,174481.0
567064.8619044044,403323.0,438011.0,454166.0,174488.0
567064.8802302964,403482.0,438235.0,454440.0,174517.0
567064.8985561884,403618.0,438369.0,454517.0,174489.0
567064.9168820805,403809.0,438589.0,454735.0,174476.0
567064.9352079725,403900.0,438678.0,454864.0,174490.0
567064.9535338647,403801.0,438538.0,454728.0,174501.0
567064.9718597567,403499.0,438204.0,454342.0,174570.0
567064.9901856488,403006.0,437518.0,453736.0,174496.0
567065.0085115408,402421.0,436886.0,453012.0,174486.0
567065.0268374329,401918.0,436195.0,452339.0,174474.0
567065.045163325,401452.0,435554.0,451775.0,174474.0
567065.0634892171,400979.0,434890.0,451098.0,174506.0
567065.0818151091,400513.0,434361.0,450578.0,174470.0
567065.1001410012,400171.0,433862.0,450075.0,174492.0
567065.1184668932,399764.0,433425.0,449586.0,174557.0
567065.1367927853,399474.0,433015.0,449221.0,174486.0
567065.1551186774,399217.0,432724.0,448994.0,174502.0
567065.1734445695,399114.0,432588.0,448875.0,174513.0
567065.1917704615,399187.0,432549.0,448849.0,174547.0
567065.2100963535,399144.0,432546.0,448870.0,174488.0
567065.2284222456,399225.0,432494.0,448878.0,174489.0
567065.2467481376,399292.0,432548.0,448915.0,174554.0
567065.2650740298,399319.0,432626.0,448975.0,174503.0
567065.2833999218,399357.0,432627.0,448993.0,174450.0
567065.3017258139,399419.0,432713.0,449030.0,174490.0
567065.3200517059,399561.0,432884.0,449184.0,174473.0
567065.338377598,399661.0,433006.0,449309.0,174478.0
567065.35670349,399772.0,433119.0,449468.0,174525.0
567065.3750293822,399882.0,433353.0,449605.0,174519.0
567065.3933552742,399983.0,433525.0,449773.0,174459.0
567065.4116811663,400205.0,433691.0,449956.0,174536.0
567065.4300070583,400304.0,433887.0,450134.0,174465.0
567065.4483329504,400486.0,434118.0,450386.0,174546.0
567065.4666588424,400610.0,434319.0,450512.0,174417.0
567065.4849847346,400759.0,434536.0,450683.0,174490.0
567065.5033106266,400961.0,434820.0,450924.0,174458.0
567065.5216365186,401144.0,435000.0,451160.0,174452.0
567065.5399624107,401359.0,435274.0,451375.0,174437.0
567065.5582883027,401568.0,435511.0,451589.0,174470.0
567065.5766141948,401765.0,435744.0,451832.0,174442.0
567065.594940087,401934.0,436021.0,452057.0,174441.0
567065.613265979,402071.0,436296.0,452265.0,174437.0
567065.631591871,402285.0,436473.0,452480.0,174477.0
567065.6499177631,402459.0,436756.0,452751.0,174505.0
567065.6682436551,402563.0,436978.0,452970.0,174451.0
567065.6865695472,402756.0,437205.0,453148.0,174440.0
567065.7048954393,402953.0,437502.0,453433.0,174490.0
567065.7232213314,403179.0,437750.0,453642.0,174455.0
567065.7415472234,403378.0,438019.0,453867.0,174400.0
567065.7598731155,403597.0,438255.0,454131.0,174447.0
567065.7781990075,403671.0,438366.0,454230.0,174471.0
567065.7965248997,403549.0,438218.0,454038.0,174485.0
567065.8148507917,403252.0,437899.0,453657.0,174525.0
567065.8331766838,402778.0,437324.0,453036.0,174476.0
567065.8515025758,402324.0,436657.0,452461.0,174518.0
567065.8698284678,401759.0,435987.0,451691.0,174482.0
567065.8881543599,401307.0,435321.0,451103.0,174452.0
567065.906480252,400820.0,434665.0,450419.0,174484.0
567065.9248061441,400317.0,433997.0,449843.0,174420.0
567065.9431320361,399867.0,433422.0,449172.0,174450.0
567065.9614579282,399516.0,432964.0,448723.0,174508.0
567065.9797838202,399220.0,432473.0,448317.0,174489.0
567065.9981097123,399033.0,432269.0,448034.0,174502.0
567066.0164356044,398891.0,432069.0,447792.0,174461.0
567066.0347614965,398905.0,431998.0,447806.0,174443.0
567066.0530873885,398898.0,432037.0,447817.0,174435.0
567066.0714132806,399044.0,432177.0,447946.0,174477.0
567066.0897391726,399020.0,432225.0,447972.0,174430.0
567066.1080650646,399150.0,432337.0,448020.0,174400.0
567066.1263909568,399284.0,432476.0,448187.0,174468.0
567066.1447168489,399341.0,432589.0,448268.0,174494.0
567066.1630427409,399525.0,432688.0,448372.0,174475.0
567066.1813686329,399655.0,432918.0,448513.0,174483.0
567066.199694525,399774.0,433099.0,448632.0,174502.0
567066.218020417,399968.0,433323.0,448882.0,174477.0
567066.2363463092,400128.0,433468.0,449042.0,174474.0
567066.2546722012,400242.0,433731.0,449313.0,174519.0
567066.2729980933,400418.0,434015.0,449496.0,174496.0
567066.2913239853,400573.0,434179.0,449661.0,174476.0
567066.3096498774,400771.0,434503.0,449877.0,174469.0
567066.3279757694,400997.0,434738.0,450140.0,174453.0
567066.3463016616,401180.0,435026.0,450395.0,174503.0
567066.3646275536,401432.0,435249.0,450675.0,174513.0
567066.3829534457,401589.0,435518.0,450897.0,174455.0
567066.4012793377,401808.0,435793.0,451144.0,174504.0
567066.4196052297,402053.0,436037.0,451361.0,174491.0
567066.4379311218,402188.0,436281.0,451597.0,174467.0
567066.456257014,402326.0,436476.0,451799.0,174454.0
567066.474582906,402577.0,436748.0,452071.0,174482.0
567066.492908798,402717.0,437056.0,452300.0,174521.0
567066.5112346901,402957.0,437333.0,452519.0,174465.0
567066.5295605821,403116.0,437501.0,452745.0,174459.0
567066.5478864742,403337.0,437810.0,453014.0,174461.0
567066.5662123663,403573.0,438052.0,453239.0,174522.0
567066.5845382584,403739.0,438316.0,453557.0,174472.0
567066.6028641504,403980.0,438571.0,453761.0,174457.0
567066.6211900425,404115.0,438831.0,454019.0,174508.0
567066.6395159345,404257.0,439024.0,454180.0,174468.0
567066.6578418267,404202.0,438886.0,454004.0,174484.0
567066.6761677187,403841.0,438486.0,453595.0,174481.0
567066.6944936108,403446.0,437954.0,453035.0,174505.0
567066.7128195028,402845.0,437244.0,452289.0,174462.0
567066.7311453948,402325.0,436496.0,451510.0,174485.0
567066.7494712869,401737.0,435736.0,450811.0,174505.0
567066.767797179,401170.0,434957.0,450076.0,174482.0
567066.7861230711,400605.0,434262.0,449361.0,174465.0
567066.8044489631,400106.0,433576.0,448717.0,174475.0
567066.8227748552,399629.0,432973.0,448125.0,174498.0
567066.8411007472,399279.0,432424.0,447568.0,174486.0
567066.8594266393,398923.0,431956.0,447113.0,174434.0
567066.8777525314,398635.0,431658.0,446804.0,174410.0
567066.8960784235,398529.0,431563.0,446717.0,174408.0
567066.9144043155,398619.0,431494.0,446666.0,174440.0
567066.9327302076,398644.0,431627.0,446782.0,174447.0
567066.9510560996,398685.0,431571.0,446836.0,174422.0
567066.9693819917,398785.0,431655.0,446901.0,174439.0
567066.9877078838,398821.0,431718.0,446927.0,174470.0
567067.0060337759,398925.0,431920.0,447065.0,174440.0
567067.0243596679,399018.0,431993.0,447159.0,174443.0
567067.04268556,399164.0,432126.0,447280.0,174417.0
567067.061011452,399248.0,432299.0,447339.0,174511.0
567067.079337344,399459.0,432538.0,447508.0,174513.0
567067.0976632362,399535.0,432677.0,447697.0,174520.0
567067.1159891282,399725.0,432896.0,447901.0,174500.0
567067.1343150203,399883.0,433100.0,448101.0,174545.0
567067.1526409123,400044.0,433263.0,448259.0,174484.0
567067.1709668044,400202.0,433563.0,448455.0,174442.0
567067.1892926964,400413.0,433751.0,448704.0,174456.0
567067.2076185886,400627.0,434043.0,448967.0,174502.0
567067.2259444806,400902.0,434260.0,449195.0,174454.0
567067.2442703727,401097.0,434509.0,449439.0,174464.0
567067.2625962647,401369.0,434833.0,449675.0,174510.0
567067.2809221568,401442.0,435098.0,449992.0,174498.0
567067.2992480488,401587.0,435325.0,450215.0,174479.0
567067.317573941,401731.0,435577.0,450435.0,174434.0
567067.335899833,402009.0,435810.0,450625.0,174482.0
567067.354225725,402084.0,436039.0,450813.0,174477.0
567067.3725516171,402224.0,436313.0,450990.0,174454.0
567067.3908775091,402434.0,436514.0,451281.0,174502.0
567067.4092034013,402649.0,436773.0,451528.0,174483.0
567067.4275292933,402839.0,437000.0,451768.0,174462.0
567067.4458551854,403038.0,437291.0,452043.0,174465.0
567067.4641810774,403250.0,437625.0,452272.0,174454.0
567067.4825069695,403548.0,437917.0,452558.0,174488.0
567067.5008328615,403596.0,438097.0,452743.0,174476.0
567067.5191587537,403733.0,438260.0,452899.0,174487.0
567067.5374846457,403599.0,438068.0,452721.0,174447.0
567067.5558105378,403277.0,437683.0,452283.0,174414.0
567067.5741364298,402872.0,437128.0,451712.0,174482.0
567067.5924623219,402321.0,436415.0,450981.0,174470.0
567067.6107882139,401716.0,435642.0,450267.0,174469.0
567067.6291141061,401090.0,434838.0,449582.0,174441.0
567067.6474399981,400521.0,434113.0,448840.0,174473.0
567067.6657658902,399984.0,433366.0,448116.0,174466.0
567067.6840917822,399403.0,432634.0,447386.0,174437.0
567067.7024176742,398953.0,432051.0,446837.0,174449.0
567067.7207435663,398533.0,431519.0,446318.0,174414.0
567067.7390694584,398191.0,431015.0,445940.0,174412.0
567067.7573953505,398025.0,430749.0,445755.0,174496.0
567067.7757212425,397927.0,430640.0,445602.0,174454.0
567067.7940471346,397859.0,430619.0,445553.0,174423.0
567067.8123730266,398045.0,430717.0,445679.0,174547.0
567067.8306989187,398054.0,430704.0,445711.0,174543.0
567067.8490248108,398155.0,430743.0,445794.0,174542.0
567067.8673507029,398181.0,430774.0,445834.0,174482.0
567067.8856765949,398145.0,430835.0,445873.0,174431.0
567067.904002487,398319.0,430930.0,445939.0,174465.0
567067.922328379,398385.0,431047.0,446052.0,174503.0
567067.940654271,398508.0,431190.0,446230.0,174509.0
567067.9589801632,398551.0,431327.0,446307.0,174479.0
567067.9773060553,398707.0,431474.0,446485.0,174443.0
567067.9956319473,398819.0,431602.0,446636.0,174459.0
567068.0139578393,398995.0,431859.0,446795.0,174412.0
567068.0322837314,399121.0,432068.0,447003.0,174467.0
567068.0506096234,399221.0,432200.0,447231.0,174406.0
567068.0689355156,399430.0,432417.0,447434.0,174415.0
567068.0872614076,399654.0,432621.0,447686.0,174434.0
567068.1055872997,399786.0,432848.0,447834.0,174448.0
567068.1239131917,399976.0,433133.0,448107.0,174529.0
567068.1422390838,400077.0,433307.0,448258.0,174458.0
567068.1605649758,400236.0,433476.0,448467.0,174441.0
567068.178890868,400321.0,433733.0,448642.0,174405.0
567068.19721676,400523.0,433978.0,448849.0,174413.0
567068.2155426521,400639.0,434107.0,448991.0,174431.0
567068.2338685441,400817.0,434389.0,449175.0,174397.0
567068.2521944362,400978.0,434589.0,449443.0,174486.0
567068.2705203283,401226.0,434755.0,449737.0,174520.0
567068.2888462204,401355.0,434982.0,449889.0,174518.0
567068.3071721124,401504.0,435214.0,450088.0,174490.0
567068.3254980044,401703.0,435410.0,450308.0,174503.0
567068.3438238965,401809.0,435675.0,450522.0,174489.0
567068.3621497885,401983.0,435884.0,450814.0,174449.0
567068.3804756807,402164.0,436033.0,450959.0,174510.0
567068.3988015727,401999.0,435942.0,450815.0,174442.0
567068.4171274648,401709.0,435572.0,450394.0,174482.0
567068.4354533568,401340.0,435000.0,449852.0,174512.0
567068.4537792489,400766.0,434344.0,449230.0,174546.0
567068.4721051409,400141.0,433652.0,448478.0,174427.0
567068.4904310331,399665.0,432934.0,447841.0,174526.0
567068.5087569251,399087.0,432196.0,447174.0,174451.0
567068.5270828172,398604.0,431482.0,446509.0,174422.0
567068.5454087092,398109.0,430919.0,445936.0,174456.0
567068.5637346013,397641.0,430323.0,445337.0,174422.0
567068.5820604933,397283.0,429889.0,444949.0,174475.0
567068.6003863855,397013.0,429490.0,444547.0,174448.0
567068.6187122775,396834.0,429232.0,444368.0,174502.0
567068.6370381695,396786.0,429140.0,444361.0,174444.0
567068.6553640616,396924.0,429226.0,444423.0,174488.0
567068.6736899536,396922.0,429234.0,444433.0,174478.0
567068.6920158457,396880.0,429218.0,444450.0,174415.0
567068.7103417378,397035.0,429293.0,444518.0,174413.0
567068.7286676299,397051.0,429337.0,444532.0,174430.0
567068.7469935219,397062.0,429436.0,444663.0,174414.0
567068.765319414,397127.0,429482.0,444659.0,174423.0
567068.783645306,397263.0,429573.0,444764.0,174459.0
567068.8019711981,397357.0,429774.0,444906.0,174541.0
567068.8202970902,397388.0,429870.0,445010.0,174418.0
567068.8386229823,397556.0,430069.0,445187.0,174500.0
567068.8569488743,397609.0,430252.0,445346.0,174505.0
567068.8752747664,397781.0,430404.0,445543.0,174501.0
567068.8936006584,397928.0,430594.0,445697.0,174490.0
567068.9119265504,397969.0,430784.0,445821.0,174426.0
567068.9302524426,398191.0,431056.0,446076.0,174485.0
567068.9485783346,398375.0,431208.0,446290.0,174522.0
567068.9669042267,398475.0,431388.0,446437.0,174486.0
567068.9852301187,398668.0,431635.0,446650.0,174519.0
567069.0035560108,398792.0,431913.0,446904.0,174498.0
567069.0218819028,398922.0,432058.0,447111.0,174450.0
567069.040207795,399048.0,432273.0,447256.0,174420.0
567069.058533687,399179.0,432473.0,447443.0,174438.0
567069.0768595791,399343.0,432677.0,447627.0,174471.0
567069.0951854711,399457.0,432861.0,447788.0,174501.0
567069.1135113632,399675.0,433163.0,448118.0,174513.0
567069.1318372553,399856.0,433334.0,448281.0,174465.0
567069.1501631474,400006.0,433621.0,448455.0,174443.0
567069.1684890394,400243.0,433877.0,448689.0,174448.0
567069.1868149315,400429.0,434128.0,448961.0,174400.0
567069.2051408235,400566.0,434356.0,449140.0,174389.0
567069.2234667155,400663.0,434475.0,449274.0,174454.0
567069.2417926077,400518.0,434220.0,449027.0,174521.0
567069.2601184997,400083.0,433737.0,448497.0,174414.0
567069.2784443918,399706.0,433253.0,448004.0,174579.0
567069.2967702838,399143.0,432604.0,447319.0,174439.0
567069.3150961759,398730.0,432041.0,446816.0,174456.0
567069.3334220679,398178.0,431399.0,446148.0,174430.0
567069.3517479601,397678.0,430761.0,445509.0,174437.0
567069.3700738521,397293.0,430240.0,445026.0,174422.0
567069.3883997442,396888.0,429801.0,444548.0,174422.0
567069.4067256362,396617.0,429400.0,444201.0,174483.0
567069.4250515283,396354.0,429058.0,443895.0,174470.0
567069.4433774203,396264.0,428873.0,443682.0,174460.0
567069.4617033125,396203.0,428888.0,443720.0,174467.0
567069.4800292045,396265.0,428930.0,443771.0,174425.0
567069.4983550966,396392.0,429042.0,443887.0,174451.0
567069.5166809886,396483.0,429161.0,443960.0,174475.0
567069.5350068806,396611.0,429357.0,444107.0,174461.0
567069.5533327727,396769.0,429492.0,444236.0,174468.0
567069.5716586648,396826.0,429653.0,444437.0,174442.0
567069.5899845569,396985.0,429808.0,444536.0,174487.0
567069.6083104489,397090.0,429964.0,444650.0,174413.0
567069.626636341,397245.0,430138.0,444884.0,174413.0
