time_lsl,uV
567028.6606069175,-129.0
567028.6683623336,-136.0
567028.6761177497,-143.0
567028.6838731659,-150.0
567028.691628582,-160.0
567028.699383998,-160.0
567028.7071394142,-158.0
567028.7148948302,-155.0
567028.7226502465,-155.0
567028.7304056626,-153.0
567028.7381610787,-150.0
567028.7459164948,-150.0
567028.753671911,-150.0
567028.7614273271,-148.0
567028.7691827432,-146.0
567028.7769381593,-141.0
567028.7846935753,-136.0
567028.7924489916,-139.0
567028.8002044077,-141.0
567028.8079598238,-139.0
567028.8157152398,-131.0
567028.823470656,-134.0
567028.8312260722,-143.0
567028.8389814883,-146.0
567028.8467369044,-139.0
567028.8544923204,-134.0
567028.8622477367,-141.0
567028.8700031528,-143.0
567028.8777585689,-139.0
567028.885513985,-141.0
567028.893269401,-146.0
567028.9010248173,-139.0
567028.9087802334,-136.0
567028.9165356494,-136.0
567028.9242910655,-136.0
567028.9320464816,-136.0
567028.9398018979,-134.0
567028.947557314,-131.0
567028.95531273,-129.0
567028.9630681461,-127.0
567028.9708235624,-124.0
567028.9785789785,-127.0
567028.9863343945,-124.0
567028.9940898106,-122.0
567029.0018452267,-127.0
567029.009600643,-131.0
567029.017356059,-129.0
567029.0251114751,-115.0
567029.0328668912,-95.0
567029.0406223073,-86.0
567029.0483777235,-93.0
567029.0561331396,-103.0
567029.0638885557,-112.0
567029.0716439718,-122.0
567029.0793993879,-119.0
567029.0871548041,-115.0
567029.0949102202,-112.0
567029.1026656363,-112.0
567029.1104210524,-115.0
567029.1181764686,-119.0
567029.1259318847,-115.0
567029.1336873008,-105.0
567029.1414427169,-105.0
567029.149198133,-115.0
567029.1569535492,-52.0
567029.1647089653,261.0
567029.1724643814,692.0
567029.1802197975,639.0
567029.1879752136,-7.0
567029.1957306298,-433.0
567029.2034860459,-273.0
567029.211241462,-122.0
567029.2189968781,-184.0
567029.2267522943,-179.0
567029.2345077104,-136.0
567029.2422631265,-158.0
567029.2500185426,-162.0
567029.2577739587,-141.0
567029.2655293749,-141.0
567029.273284791,-143.0
567029.2810402071,-134.0
567029.2887956232,-131.0
567029.2965510393,-131.0
567029.3043064555,-124.0
567029.3120618716,-115.0
567029.3198172877,-105.0
567029.3275727038,-95.0
567029.33532812,-91.0
567029.3430835361,-88.0
567029.3508389522,-81.0
567029.3585943683,-67.0
567029.3663497844,-57.0
567029.3741052006,-57.0
567029.3818606167,-57.0
567029.3896160328,-52.0
567029.3973714489,-45.0
567029.405126865,-50.0
567029.4128822812,-69.0
567029.4206376973,-76.0
567029.4283931134,-81.0
567029.4361485295,-93.0
567029.4439039457,-98.0
567029.4516593618,-98.0
567029.4594147779,-107.0
567029.467170194,-117.0
567029.4749256101,-119.0
567029.4826810263,-134.0
567029.4904364424,-150.0
567029.4981918585,-155.0
567029.5059472746,-158.0
567029.5137026907,-160.0
567029.5214581069,-162.0
567029.529213523,-162.0
567029.5369689391,-162.0
567029.5447243552,-162.0
567029.5524797713,-153.0
567029.5602351875,-146.0
567029.5679906036,-143.0
567029.5757460197,-143.0
567029.5835014358,-143.0
567029.591256852,-139.0
567029.5990122681,-131.0
567029.6067676842,-127.0
567029.6145231003,-131.0
567029.6222785164,-134.0
567029.6300339326,-131.0
567029.6377893487,-129.0
567029.6455447648,-131.0
567029.6533001809,-131.0
567029.661055597,-134.0
567029.6688110132,-139.0
567029.6765664293,-136.0
567029.6843218454,-134.0
567029.6920772615,-139.0
567029.6998326777,-141.0
567029.7075880938,-136.0
567029.7153435099,-136.0
567029.723098926,-136.0
567029.7308543421,-134.0
567029.7386097583,-134.0
567029.7463651744,-139.0
567029.7541205905,-141.0
567029.7618760066,-139.0
567029.7696314227,-136.0
567029.7773868389,-139.0
567029.785142255,-146.0
567029.7928976711,-150.0
567029.8006530872,-150.0
567029.8084085034,-141.0
567029.8161639195,-124.0
567029.8239193356,-112.0
567029.8316747517,-110.0
567029.8394301678,-124.0
567029.847185584,-143.0
567029.8549410001,-150.0
567029.8626964162,-150.0
567029.8704518323,-146.0
567029.8782072484,-146.0
567029.8859626646,-150.0
567029.8937180807,-150.0
567029.9014734968,-148.0
567029.9092289129,-148.0
567029.916984329,-150.0
567029.9247397452,-148.0
567029.9324951613,-153.0
567029.9402505774,-103.0
567029.9480059935,182.0
567029.9557614097,623.0
567029.9635168258,642.0
567029.9712722419,33.0
567029.979027658,-457.0
567029.9867830741,-347.0
567029.9945384903,-167.0
567030.0022939064,-215.0
567030.0100493225,-230.0
567030.0178047386,-186.0
567030.0255601547,-201.0
567030.0333155709,-208.0
567030.041070987,-189.0
567030.0488264031,-184.0
567030.0565818192,-189.0
567030.0643372354,-182.0
567030.0720926515,-172.0
567030.0798480676,-167.0
567030.0876034837,-162.0
567030.0953588998,-155.0
567030.103114316,-148.0
567030.1108697321,-143.0
567030.1186251482,-134.0
567030.1263805643,-124.0
567030.1341359804,-117.0
567030.1418913966,-110.0
567030.1496468127,-103.0
567030.1574022288,-95.0
567030.1651576449,-91.0
567030.1729130611,-88.0
567030.1806684772,-93.0
567030.1884238933,-98.0
567030.1961793094,-103.0
567030.2039347255,-115.0
567030.2116901417,-122.0
567030.2194455578,-129.0
567030.2272009739,-139.0
567030.23495639,-146.0
567030.2427118061,-150.0
567030.2504672223,-158.0
567030.2582226384,-167.0
567030.2659780545,-177.0
567030.2737334706,-184.0
567030.2814888867,-194.0
567030.2892443029,-196.0
567030.296999719,-196.0
567030.3047551351,-194.0
567030.3125105512,-191.0
567030.3202659674,-194.0
567030.3280213835,-189.0
567030.3357767996,-182.0
567030.3435322157,-179.0
567030.3512876318,-177.0
567030.359043048,-172.0
567030.3667984641,-170.0
567030.3745538802,-165.0
567030.3823092963,-165.0
567030.3900647124,-170.0
567030.3978201286,-167.0
567030.4055755447,-165.0
567030.4133309608,-165.0
567030.4210863769,-170.0
567030.4288417931,-174.0
567030.4365972092,-174.0
567030.4443526253,-172.0
567030.4521080414,-172.0
567030.4598634575,-172.0
567030.4676188737,-177.0
567030.4753742898,-174.0
567030.4831297059,-170.0
567030.490885122,-167.0
567030.4986405381,-170.0
567030.5063959543,-174.0
567030.5141513704,-174.0
567030.5219067865,-172.0
567030.5296622026,-170.0
567030.5374176188,-170.0
567030.5451730349,-167.0
567030.552928451,-165.0
567030.5606838671,-167.0
567030.5684392832,-165.0
567030.5761946994,-162.0
567030.5839501155,-158.0
567030.5917055316,-155.0
567030.5994609477,-160.0
567030.6072163638,-170.0
567030.61497178,-170.0
567030.6227271961,-150.0
567030.6304826122,-129.0
567030.6382380283,-119.0
567030.6459934445,-129.0
567030.6537488606,-141.0
567030.6615042767,-150.0
567030.6692596928,-150.0
567030.6770151089,-148.0
567030.6847705251,-148.0
567030.6925259412,-150.0
567030.7002813573,-146.0
567030.7080367734,-146.0
567030.7157921895,-148.0
567030.7235476057,-148.0
567030.7313030218,-146.0
567030.7390584379,-143.0
567030.746813854,-146.0
567030.7545692701,-14.0
567030.7623246863,385.0
567030.7700801024,752.0
567030.7778355185,515.0
567030.7855909346,-177.0
567030.7933463508,-472.0
567030.8011017669,-251.0
567030.808857183,-162.0
567030.8166125991,-246.0
567030.8243680152,-222.0
567030.8321234314,-186.0
567030.8398788475,-210.0
567030.8476342636,-206.0
567030.8553896797,-184.0
567030.8631450958,-186.0
567030.870900512,-186.0
567030.8786559281,-174.0
567030.8864113442,-170.0
567030.8941667603,-167.0
567030.9019221765,-162.0
567030.9096775926,-158.0
567030.9174330087,-150.0
567030.9251884248,-141.0
567030.9329438409,-134.0
567030.9406992571,-124.0
567030.9484546732,-115.0
567030.9562100893,-105.0
567030.9639655054,-95.0
567030.9717209215,-91.0
567030.9794763377,-91.0
567030.9872317538,-88.0
567030.9949871699,-91.0
567031.002742586,-98.0
567031.0104980022,-110.0
567031.0182534183,-119.0
567031.0260088344,-131.0
567031.0337642505,-136.0
567031.0415196666,-136.0
567031.0492750828,-139.0
567031.0570304989,-143.0
567031.064785915,-148.0
567031.072541331,-160.0
567031.0802967472,-167.0
567031.0880521634,-172.0
567031.0958075795,-174.0
567031.1035629956,-177.0
567031.1113184117,-182.0
567031.1190738278,-179.0
567031.126829244,-174.0
567031.1345846601,-172.0
567031.1423400762,-167.0
567031.1500954923,-165.0
567031.1578509085,-165.0
567031.1656063246,-162.0
567031.1733617407,-158.0
567031.1811171568,-155.0
567031.1888725728,-155.0
567031.1966279891,-153.0
567031.2043834052,-153.0
567031.2121388213,-155.0
567031.2198942374,-153.0
567031.2276496534,-150.0
567031.2354050697,-150.0
567031.2431604858,-153.0
567031.2509159019,-155.0
567031.258671318,-155.0
567031.2664267342,-153.0
567031.2741821503,-150.0
567031.2819375664,-153.0
567031.2896929824,-153.0
567031.2974483985,-153.0
567031.3052038148,-155.0
567031.3129592309,-155.0
567031.320714647,-153.0
567031.328470063,-150.0
567031.3362254791,-150.0
567031.3439808954,-148.0
567031.3517363115,-148.0
567031.3594917275,-148.0
567031.3672471436,-146.0
567031.3750025599,-143.0
567031.382757976,-143.0
567031.390513392,-146.0
567031.3982688081,-146.0
567031.4060242242,-148.0
567031.4137796405,-153.0
567031.4215350566,-150.0
567031.4292904726,-131.0
567031.4370458887,-117.0
567031.4448013048,-119.0
567031.452556721,-129.0
567031.4603121371,-141.0
567031.4680675532,-146.0
567031.4758229693,-143.0
567031.4835783854,-141.0
567031.4913338016,-146.0
567031.4990892177,-146.0
567031.5068446338,-146.0
567031.5146000499,-148.0
567031.5223554661,-146.0
567031.5301108822,-143.0
567031.5378662983,-143.0
567031.5456217144,-150.0
567031.5533771305,-69.0
567031.5611325467,273.0
567031.5688879628,683.0
567031.5766433789,575.0
567031.584398795,-79.0
567031.5921542111,-467.0
567031.5999096273,-289.0
567031.6076650434,-150.0
567031.6154204595,-227.0
567031.6231758756,-225.0
567031.6309312918,-182.0
567031.638686708,-196.0
567031.646442124,-194.0
567031.6541975401,-174.0
567031.6619529562,-177.0
567031.6697083724,-177.0
567031.6774637885,-165.0
567031.6852192046,-158.0
567031.6929746207,-158.0
567031.7007300368,-150.0
567031.708485453,-141.0
567031.7162408691,-134.0
567031.7239962852,-127.0
567031.7317517013,-117.0
567031.7395071175,-107.0
567031.7472625336,-100.0
567031.7550179497,-93.0
567031.7627733658,-86.0
567031.7705287819,-76.0
567031.7782841981,-71.0
567031.7860396142,-71.0
567031.7937950303,-71.0
567031.8015504464,-76.0
567031.8093058625,-83.0
567031.8170612787,-93.0
567031.8248166948,-103.0
567031.8325721109,-110.0
567031.840327527,-112.0
567031.8480829431,-115.0
567031.8558383593,-122.0
567031.8635937754,-129.0
567031.8713491915,-139.0
567031.8791046076,-148.0
567031.8868600238,-158.0
567031.8946154399,-165.0
567031.902370856,-167.0
567031.9101262721,-167.0
567031.9178816882,-167.0
567031.9256371044,-165.0
567031.9333925205,-160.0
567031.9411479366,-160.0
567031.9489033527,-158.0
567031.9566587688,-155.0
567031.964414185,-158.0
567031.9721696011,-150.0
567031.9799250172,-143.0
567031.9876804333,-141.0
567031.9954358495,-146.0
567032.0031912656,-146.0
567032.0109466817,-141.0
567032.0187020978,-136.0
567032.0264575139,-131.0
567032.0342129301,-134.0
567032.0419683462,-136.0
567032.0497237623,-136.0
567032.0574791784,-141.0
567032.0652345945,-146.0
567032.0729900107,-143.0
567032.0807454268,-136.0
567032.0885008429,-134.0
567032.096256259,-134.0
567032.1040116752,-134.0
567032.1117670913,-136.0
567032.1195225074,-139.0
567032.1272779235,-134.0
567032.1350333396,-131.0
567032.1427887558,-136.0
567032.1505441719,-136.0
567032.158299588,-134.0
567032.1660550041,-129.0
567032.1738104202,-122.0
567032.1815658364,-122.0
567032.1893212525,-124.0
567032.1970766686,-122.0
567032.2048320847,-122.0
567032.2125875009,-129.0
567032.220342917,-136.0
567032.2280983331,-119.0
567032.2358537492,-95.0
567032.2436091653,-88.0
567032.2513645815,-91.0
567032.2591199976,-98.0
567032.2668754137,-112.0
567032.2746308298,-115.0
567032.2823862459,-110.0
567032.2901416621,-112.0
567032.2978970782,-115.0
567032.3056524943,-112.0
567032.3134079104,-112.0
567032.3211633265,-115.0
567032.3289187427,-110.0
567032.3366741588,-105.0
567032.3444295749,-110.0
567032.352184991,-110.0
567032.3599404072,-2.0
567032.3676958233,364.0
567032.3754512394,735.0
567032.3832066555,510.0
567032.3909620716,-177.0
567032.3987174878,-443.0
567032.4064729039,-210.0
567032.41422832,-124.0
567032.4219837361,-198.0
567032.4297391522,-167.0
567032.4374945684,-141.0
567032.4452499845,-170.0
567032.4530054006,-153.0
567032.4607608167,-127.0
567032.4685162329,-136.0
567032.476271649,-139.0
567032.4840270651,-127.0
567032.4917824812,-122.0
567032.4995378973,-117.0
567032.5072933135,-107.0
567032.5150487296,-105.0
567032.5228041457,-95.0
567032.5305595618,-86.0
567032.5383149779,-83.0
567032.5460703941,-74.0
567032.5538258102,-59.0
567032.5615812263,-52.0
567032.5693366424,-43.0
567032.5770920586,-31.0
567032.5848474747,-31.0
567032.5926028908,-26.0
567032.6003583069,-28.0
567032.608113723,-45.0
567032.6158691392,-50.0
567032.6236245553,-47.0
567032.6313799714,-57.0
567032.6391353875,-67.0
567032.6468908036,-71.0
567032.6546462198,-79.0
567032.6624016359,-88.0
567032.670157052,-105.0
567032.6779124681,-122.0
567032.6856678842,-131.0
567032.6934233004,-136.0
567032.7011787165,-148.0
567032.7089341326,-155.0
567032.7166895487,-148.0
567032.7244449649,-139.0
567032.732200381,-141.0
567032.7399557971,-146.0
567032.7477112132,-143.0
567032.7554666293,-146.0
567032.7632220455,-146.0
567032.7709774616,-134.0
567032.7787328777,-122.0
567032.7864882938,-122.0
567032.7942437099,-122.0
567032.8019991261,-117.0
567032.8097545422,-117.0
567032.8175099583,-119.0
567032.8252653744,-119.0
567032.8330207906,-124.0
567032.8407762067,-122.0
567032.8485316228,-112.0
567032.8562870389,-107.0
567032.864042455,-119.0
567032.8717978712,-131.0
567032.8795532873,-127.0
567032.8873087034,-122.0
567032.8950641195,-131.0
567032.9028195356,-129.0
567032.9105749518,-119.0
567032.9183303679,-117.0
567032.926085784,-122.0
567032.9338412001,-129.0
567032.9415966163,-136.0
567032.9493520324,-136.0
567032.9571074485,-127.0
567032.9648628646,-117.0
567032.9726182807,-112.0
567032.9803736969,-112.0
567032.988129113,-119.0
567032.9958845291,-127.0
567033.0036399452,-136.0
567033.0113953613,-136.0
567033.0191507775,-127.0
567033.0269061936,-127.0
567033.0346616097,-131.0
567033.0424170258,-131.0
567033.0501724419,-127.0
567033.0579278581,-127.0
567033.0656832742,-129.0
567033.0734386903,-127.0
567033.0811941064,-115.0
567033.0889495226,45.0
567033.0967049387,462.0
567033.1044603548,718.0
567033.1122157709,289.0
567033.119971187,-361.0
567033.1277266032,-421.0
567033.1354820193,-174.0
567033.1432374354,-172.0
567033.1509928515,-220.0
567033.1587482676,-165.0
567033.1665036838,-160.0
567033.1742590999,-177.0
567033.182014516,-155.0
567033.1897699321,-150.0
567033.1975253483,-162.0
567033.2052807644,-158.0
567033.2130361805,-146.0
567033.2207915966,-141.0
567033.2285470127,-139.0
567033.2363024289,-134.0
567033.244057845,-131.0
567033.2518132611,-124.0
567033.2595686772,-115.0
567033.2673240933,-107.0
567033.2750795095,-103.0
567033.2828349256,-95.0
567033.2905903417,-88.0
567033.2983457578,-79.0
567033.306101174,-69.0
567033.3138565901,-67.0
567033.3216120062,-67.0
567033.3293674223,-71.0
567033.3371228384,-76.0
567033.3448782546,-86.0
567033.3526336707,-95.0
567033.3603890868,-107.0
567033.3681445029,-115.0
567033.375899919,-124.0
567033.3836553352,-134.0
567033.3914107513,-148.0
567033.3991661674,-165.0
567033.4069215835,-174.0
567033.4146769997,-182.0
567033.4224324158,-191.0
567033.4301878319,-196.0
567033.437943248,-196.0
567033.445698664,-198.0
567033.4534540803,-203.0
567033.4612094964,-203.0
567033.4689649125,-203.0
567033.4767203286,-198.0
567033.4844757447,-191.0
567033.4922311609,-186.0
567033.499986577,-184.0
567033.5077419931,-179.0
567033.5154974092,-172.0
567033.5232528253,-170.0
567033.5310082415,-170.0
567033.5387636576,-165.0
567033.5465190737,-160.0
567033.5542744898,-158.0
567033.562029906,-160.0
567033.5697853221,-162.0
567033.5775407382,-165.0
567033.5852961543,-165.0
567033.5930515704,-162.0
567033.6008069866,-162.0
567033.6085624027,-167.0
567033.6163178188,-167.0
567033.6240732349,-162.0
567033.631828651,-165.0
567033.6395840672,-165.0
567033.6473394833,-162.0
567033.6550948994,-160.0
567033.6628503154,-160.0
567033.6706057317,-160.0
567033.6783611478,-158.0
567033.6861165639,-155.0
567033.69387198,-158.0
567033.701627396,-158.0
567033.7093828123,-158.0
567033.7171382284,-162.0
567033.7248936445,-165.0
567033.7326490605,-160.0
567033.7404044766,-148.0
567033.7481598929,-139.0
567033.755915309,-131.0
567033.763670725,-136.0
567033.7714261411,-150.0
567033.7791815574,-155.0
567033.7869369735,-150.0
567033.7946923896,-148.0
567033.8024478056,-148.0
567033.8102032217,-146.0
567033.817958638,-146.0
567033.825714054,-148.0
567033.8334694701,-148.0
567033.8412248862,-146.0
567033.8489803023,-148.0
567033.8567357186,-129.0
567033.8644911346,81.0
567033.8722465507,532.0
567033.8800019668,762.0
567033.8877573829,316.0
567033.8955127992,-340.0
567033.9032682152,-424.0
567033.9110236313,-184.0
567033.9187790474,-179.0
567033.9265344637,-244.0
567033.9342898797,-196.0
567033.9420452958,-179.0
567033.9498007119,-201.0
567033.957556128,-191.0
567033.9653115442,-184.0
567033.9730669603,-194.0
567033.9808223764,-186.0
567033.9885777925,-177.0
567033.9963332086,-177.0
567034.0040886248,-172.0
567034.011844041,-162.0
567034.019599457,-155.0
567034.0273548731,-148.0
567034.0351102893,-141.0
567034.0428657054,-131.0
567034.0506211215,-127.0
567034.0583765376,-117.0
567034.0661319537,-107.0
567034.07388737,-98.0
567034.081642786,-91.0
567034.0893982021,-86.0
567034.0971536182,-88.0
567034.1049090343,-91.0
567034.1126644505,-95.0
567034.1204198666,-103.0
567034.1281752827,-107.0
567034.1359306988,-115.0
567034.143686115,-122.0
567034.1514415311,-127.0
567034.1591969472,-131.0
567034.1669523633,-136.0
567034.1747077794,-146.0
567034.1824631956,-158.0
567034.1902186117,-167.0
567034.1979740278,-170.0
567034.2057294439,-177.0
567034.21348486,-182.0
567034.2212402762,-182.0
567034.2289956923,-179.0
567034.2367511084,-179.0
567034.2445065245,-179.0
567034.2522619406,-172.0
567034.2600173568,-172.0
567034.2677727729,-170.0
567034.275528189,-162.0
567034.2832836051,-160.0
567034.2910390213,-158.0
567034.2987944374,-155.0
567034.3065498535,-150.0
567034.3143052696,-148.0
567034.3220606857,-146.0
567034.3298161019,-146.0
567034.337571518,-148.0
567034.3453269341,-148.0
567034.3530823502,-148.0
567034.3608377663,-150.0
567034.3685931825,-150.0
567034.3763485986,-153.0
567034.3841040147,-158.0
567034.3918594308,-158.0
567034.399614847,-153.0
567034.4073702631,-153.0
567034.4151256792,-155.0
567034.4228810953,-158.0
567034.4306365114,-153.0
567034.4383919276,-148.0
567034.4461473437,-148.0
567034.4539027598,-148.0
567034.4616581759,-148.0
567034.469413592,-150.0
567034.4771690082,-153.0
567034.4849244243,-155.0
567034.4926798404,-160.0
567034.5004352565,-165.0
567034.5081906727,-160.0
567034.5159460888,-143.0
567034.5237015049,-131.0
567034.531456921,-124.0
567034.5392123371,-124.0
567034.5469677533,-134.0
567034.5547231694,-146.0
567034.5624785855,-148.0
567034.5702340016,-141.0
567034.5779894177,-141.0
567034.5857448339,-139.0
567034.59350025,-136.0
567034.6012556661,-139.0
567034.6090110822,-139.0
567034.6167664984,-134.0
567034.6245219145,-134.0
567034.6322773306,-136.0
567034.6400327467,-2.0
567034.6477881628,397.0
567034.655543579,764.0
567034.6632989951,529.0
567034.6710544112,-153.0
567034.6788098273,-443.0
567034.6865652434,-227.0
567034.6943206596,-139.0
567034.7020760757,-225.0
567034.7098314918,-198.0
567034.7175869079,-162.0
567034.725342324,-186.0
567034.7330977402,-186.0
567034.7408531563,-170.0
567034.7486085724,-172.0
567034.7563639885,-170.0
567034.7641194047,-158.0
567034.7718748208,-150.0
567034.7796302369,-150.0
567034.787385653,-146.0
567034.7951410691,-141.0
567034.8028964853,-134.0
567034.8106519014,-124.0
567034.8184073175,-119.0
567034.8261627336,-112.0
567034.8339181497,-100.0
567034.8416735659,-93.0
567034.849428982,-83.0
567034.8571843981,-76.0
567034.8649398142,-71.0
567034.8726952304,-67.0
567034.8804506465,-67.0
567034.8882060626,-71.0
567034.8959614787,-76.0
567034.9037168948,-86.0
567034.911472311,-93.0
567034.9192277271,-100.0
567034.9269831432,-105.0
567034.9347385593,-112.0
567034.9424939754,-122.0
567034.9502493916,-134.0
567034.9580048077,-146.0
567034.9657602238,-160.0
567034.9735156399,-170.0
567034.9812710561,-177.0
567034.9890264722,-184.0
567034.9967818883,-184.0
567035.0045373044,-182.0
567035.0122927205,-179.0
567035.0200481367,-177.0
567035.0278035528,-174.0
567035.0355589689,-170.0
567035.043314385,-167.0
567035.0510698011,-160.0
567035.0588252173,-155.0
567035.0665806334,-155.0
567035.0743360495,-153.0
567035.0820914656,-148.0
567035.0898468817,-146.0
567035.0976022979,-143.0
567035.105357714,-143.0
567035.1131131301,-143.0
567035.1208685462,-141.0
567035.1286239624,-141.0
567035.1363793785,-143.0
567035.1441347946,-143.0
567035.1518902107,-141.0
567035.1596456268,-143.0
567035.167401043,-143.0
567035.1751564591,-143.0
567035.1829118752,-141.0
567035.1906672913,-141.0
567035.1984227074,-141.0
567035.2061781236,-139.0
567035.2139335397,-136.0
567035.2216889558,-139.0
567035.2294443719,-141.0
567035.2371997881,-139.0
567035.2449552042,-134.0
567035.2527106203,-134.0
567035.2604660364,-134.0
567035.2682214525,-131.0
567035.2759768687,-134.0
567035.2837322848,-139.0
567035.2914877009,-141.0
567035.299243117,-127.0
567035.3069985331,-110.0
567035.3147539493,-98.0
567035.3225093654,-98.0
567035.3302647815,-107.0
567035.3380201976,-124.0
567035.3457756138,-127.0
567035.3535310299,-119.0
567035.361286446,-119.0
567035.3690418621,-119.0
567035.3767972782,-117.0
567035.3845526944,-115.0
567035.3923081105,-115.0
567035.4000635266,-117.0
567035.4078189427,-115.0
567035.4155743588,-112.0
567035.423329775,-117.0
567035.4310851911,-23.0
567035.4388406072,337.0
567035.4465960233,745.0
567035.4543514394,618.0
567035.4621068556,-43.0
567035.4698622717,-421.0
567035.4776176878,-244.0
567035.4853731039,-112.0
567035.4931285201,-194.0
567035.5008839362,-186.0
567035.5086393523,-143.0
567035.5163947684,-162.0
567035.5241501845,-167.0
567035.5319056007,-146.0
567035.5396610168,-146.0
567035.5474164329,-146.0
567035.555171849,-134.0
567035.5629272651,-127.0
567035.5706826813,-124.0
567035.5784380974,-119.0
567035.5861935135,-110.0
567035.5939489296,-103.0
567035.6017043458,-95.0
567035.6094597619,-91.0
567035.617215178,-79.0
567035.6249705941,-67.0
567035.6327260102,-59.0
567035.6404814264,-52.0
567035.6482368425,-43.0
567035.6559922586,-35.0
567035.6637476747,-31.0
567035.6715030908,-31.0
567035.679258507,-33.0
567035.6870139231,-40.0
567035.6947693392,-45.0
567035.7025247553,-50.0
567035.7102801715,-57.0
567035.7180355876,-64.0
567035.7257910037,-71.0
567035.7335464198,-83.0
567035.7413018359,-95.0
567035.7490572521,-107.0
567035.7568126682,-117.0
567035.7645680843,-124.0
567035.7723235004,-131.0
567035.7800789165,-136.0
567035.7878343327,-139.0
567035.7955897488,-136.0
567035.8033451649,-136.0
567035.811100581,-136.0
567035.8188559972,-131.0
567035.8266114133,-124.0
567035.8343668294,-122.0
567035.8421222455,-119.0
567035.8498776616,-115.0
567035.8576330778,-110.0
567035.8653884939,-107.0
567035.87314391,-103.0
567035.8808993261,-103.0
567035.8886547422,-103.0
567035.8964101584,-100.0
567035.9041655745,-100.0
567035.9119209906,-100.0
567035.9196764067,-100.0
567035.9274318228,-103.0
567035.935187239,-107.0
567035.9429426551,-105.0
567035.9506980712,-105.0
567035.9584534873,-105.0
567035.9662089035,-105.0
567035.9739643196,-107.0
567035.9817197357,-107.0
567035.9894751518,-105.0
567035.9972305679,-105.0
567036.0049859841,-110.0
567036.0127414002,-115.0
567036.0204968163,-112.0
567036.0282522324,-112.0
567036.0360076485,-115.0
567036.0437630647,-112.0
567036.0515184808,-110.0
567036.0592738969,-112.0
567036.067029313,-115.0
567036.0747847292,-115.0
567036.0825401453,-115.0
567036.0902955614,-119.0
567036.0980509775,-127.0
567036.1058063935,-124.0
567036.1135618098,-107.0
567036.1213172259,-86.0
567036.129072642,-79.0
567036.136828058,-88.0
567036.1445834741,-105.0
567036.1523388904,-119.0
567036.1600943065,-119.0
567036.1678497226,-112.0
567036.1756051386,-112.0
567036.1833605549,-115.0
567036.191115971,-117.0
567036.198871387,-117.0
567036.2066268031,-115.0
567036.2143822192,-112.0
567036.2221376355,-115.0
567036.2298930516,-122.0
567036.2376484676,-110.0
567036.2454038837,86.0
567036.2531592998,529.0
567036.260914716,769.0
567036.2686701322,342.0
567036.2764255482,-301.0
567036.2841809643,-388.0
567036.2919363804,-155.0
567036.2996917967,-150.0
567036.3074472127,-206.0
567036.3152026288,-160.0
567036.3229580449,-150.0
567036.3307134612,-174.0
567036.3384688772,-160.0
567036.3462242933,-148.0
567036.3539797094,-155.0
567036.3617351255,-153.0
567036.3694905418,-141.0
567036.3772459578,-141.0
567036.385001374,-139.0
567036.39275679,-127.0
567036.4005122061,-119.0
567036.4082676223,-112.0
567036.4160230384,-107.0
567036.4237784545,-103.0
567036.4315338706,-98.0
567036.4392892868,-88.0
567036.447044703,-79.0
567036.454800119,-71.0
567036.4625555351,-69.0
567036.4703109512,-67.0
567036.4780663674,-64.0
567036.4858217835,-67.0
567036.4935771996,-67.0
567036.5013326157,-67.0
567036.5090880318,-74.0
567036.516843448,-91.0
567036.5245988641,-105.0
567036.5323542802,-107.0
567036.5401096963,-107.0
567036.5478651125,-119.0
567036.5556205286,-139.0
567036.5633759447,-155.0
567036.5711313608,-162.0
567036.5788867769,-167.0
567036.5866421931,-177.0
567036.5943976092,-182.0
567036.6021530253,-182.0
567036.6099084414,-182.0
567036.6176638575,-184.0
567036.6254192737,-182.0
567036.6331746898,-170.0
567036.6409301059,-165.0
567036.648685522,-167.0
567036.6564409381,-167.0
567036.6641963543,-158.0
567036.6719517704,-155.0
567036.6797071865,-158.0
567036.6874626026,-150.0
567036.6952180188,-153.0
567036.7029734349,-158.0
567036.710728851,-150.0
567036.7184842671,-148.0
567036.7262396832,-153.0
567036.7339950994,-153.0
567036.7417505155,-146.0
567036.7495059316,-146.0
567036.7572613477,-155.0
567036.7650167638,-158.0
567036.77277218,-150.0
567036.7805275961,-150.0
567036.7882830122,-153.0
567036.7960384283,-150.0
567036.8037938445,-155.0
567036.8115492606,-148.0
567036.8193046767,-139.0
567036.8270600928,-146.0
567036.8348155089,-150.0
567036.8425709251,-143.0
567036.8503263412,-143.0
567036.8580817573,-143.0
567036.8658371734,-141.0
567036.8735925895,-141.0
567036.8813480057,-141.0
567036.8891034218,-139.0
567036.8968588379,-146.0
567036.904614254,-146.0
567036.9123696702,-139.0
567036.9201250863,-131.0
567036.9278805024,-115.0
567036.9356359185,-103.0
567036.9433913346,-107.0
567036.9511467508,-124.0
567036.9589021669,-134.0
567036.966657583,-134.0
567036.9744129991,-136.0
567036.9821684152,-141.0
567036.9899238314,-139.0
567036.9976792475,-139.0
567037.0054346636,-136.0
567037.0131900797,-136.0
567037.0209454958,-139.0
567037.028700912,-143.0
567037.0364563281,-141.0
567037.0442117442,-139.0
567037.0519671603,-43.0
567037.0597225765,321.0
567037.0674779926,711.0
567037.0752334087,510.0
567037.0829888248,-184.0
567037.0907442409,-476.0
567037.0984996571,-254.0
567037.1062550732,-155.0
567037.1140104893,-227.0
567037.1217659054,-203.0
567037.1295213215,-170.0
567037.1372767377,-189.0
567037.1450321538,-189.0
567037.1527875699,-167.0
567037.160542986,-160.0
567037.1682984022,-167.0
567037.1760538183,-162.0
567037.1838092344,-153.0
567037.1915646505,-148.0
567037.1993200666,-136.0
567037.2070754828,-127.0
567037.2148308989,-127.0
567037.222586315,-127.0
567037.2303417311,-115.0
567037.2380971472,-107.0
567037.2458525634,-112.0
567037.2536079795,-103.0
567037.2613633956,-86.0
567037.2691188117,-83.0
567037.2768742279,-71.0
567037.284629644,-57.0
567037.2923850601,-62.0
567037.3001404762,-74.0
567037.3078958923,-79.0
567037.3156513085,-83.0
567037.3234067246,-91.0
567037.3311621407,-98.0
567037.3389175568,-100.0
567037.3466729729,-112.0
567037.3544283891,-131.0
567037.3621838052,-148.0
567037.3699392213,-162.0
567037.3776946374,-174.0
567037.3854500536,-179.0
567037.3932054697,-186.0
567037.4009608858,-198.0
567037.4087163019,-203.0
567037.416471718,-198.0
567037.4242271342,-198.0
567037.4319825503,-198.0
567037.4397379664,-196.0
567037.4474933825,-189.0
567037.4552487986,-179.0
567037.4630042148,-179.0
567037.4707596309,-184.0
567037.478515047,-174.0
567037.4862704631,-170.0
567037.4940258792,-172.0
567037.5017812954,-167.0
567037.5095367115,-162.0
567037.5172921276,-162.0
567037.5250475437,-162.0
567037.5328029599,-172.0
567037.540558376,-179.0
567037.5483137921,-177.0
567037.5560692082,-174.0
567037.5638246243,-177.0
567037.5715800405,-177.0
567037.5793354566,-177.0
567037.5870908727,-177.0
567037.5948462888,-177.0
567037.6026017049,-177.0
567037.6103571211,-179.0
567037.6181125372,-177.0
567037.6258679533,-174.0
567037.6336233694,-179.0
567037.6413787856,-179.0
567037.6491342017,-177.0
567037.6568896178,-177.0
567037.6646450339,-177.0
567037.67240045,-170.0
567037.6801558662,-167.0
567037.6879112823,-177.0
567037.6956666984,-184.0
567037.7034221145,-179.0
567037.7111775306,-170.0
567037.7189329468,-158.0
567037.7266883629,-158.0
567037.734443779,-158.0
567037.7421991951,-162.0
567037.7499546113,-177.0
567037.7577100274,-179.0
567037.7654654435,-172.0
567037.7732208596,-172.0
567037.7809762757,-174.0
567037.7887316919,-179.0
567037.796487108,-179.0
567037.8042425241,-174.0
567037.8119979402,-174.0
567037.8197533563,-174.0
567037.8275087725,-179.0
567037.8352641886,-141.0
567037.8430196047,110.0
567037.8507750208,560.0
567037.8585304369,678.0
567037.8662858531,124.0
567037.8740412692,-450.0
567037.8817966853,-412.0
567037.8895521014,-203.0
567037.8973075176,-239.0
567037.9050629337,-268.0
567037.9128183498,-215.0
567037.9205737659,-220.0
567037.928329182,-237.0
567037.9360845982,-213.0
567037.9438400143,-203.0
567037.9515954304,-213.0
567037.9593508465,-206.0
567037.9671062626,-196.0
567037.9748616788,-196.0
567037.9826170949,-189.0
567037.990372511,-179.0
567037.9981279271,-172.0
567038.0058833433,-167.0
567038.0136387594,-158.0
567038.0213941755,-148.0
567038.0291495916,-139.0
567038.0369050077,-131.0
567038.0446604239,-124.0
567038.05241584,-117.0
567038.0601712561,-110.0
567038.0679266722,-103.0
567038.0756820883,-103.0
567038.0834375045,-105.0
567038.0911929206,-107.0
567038.0989483367,-115.0
567038.1067037528,-122.0
567038.114459169,-129.0
567038.1222145851,-136.0
567038.1299700012,-146.0
567038.1377254173,-150.0
567038.1454808334,-165.0
567038.1532362496,-182.0
567038.1609916657,-189.0
567038.1687470818,-194.0
567038.1765024979,-203.0
567038.184257914,-210.0
567038.1920133302,-213.0
567038.1997687463,-213.0
567038.2075241624,-213.0
567038.2152795785,-213.0
567038.2230349946,-208.0
567038.2307904108,-203.0
567038.2385458269,-201.0
567038.246301243,-196.0
567038.2540566591,-186.0
567038.2618120753,-179.0
567038.2695674914,-174.0
567038.2773229075,-172.0
567038.2850783236,-170.0
567038.2928337397,-165.0
567038.3005891559,-162.0
567038.308344572,-167.0
567038.3160999881,-167.0
567038.3238554042,-165.0
567038.3316108203,-170.0
567038.3393662365,-172.0
567038.3471216526,-172.0
567038.3548770687,-172.0
567038.3626324848,-170.0
567038.370387901,-170.0
567038.3781433171,-174.0
567038.3858987332,-170.0
567038.3936541493,-167.0
567038.4014095654,-165.0
567038.4091649816,-165.0
567038.4169203977,-165.0
567038.4246758138,-162.0
567038.4324312299,-160.0
567038.440186646,-158.0
567038.4479420622,-158.0
567038.4556974783,-160.0
567038.4634528944,-162.0
567038.4712083105,-165.0
567038.4789637267,-160.0
567038.4867191428,-155.0
567038.4944745589,-153.0
567038.502229975,-150.0
567038.509985391,-153.0
567038.5177408073,-155.0
567038.5254962234,-150.0
567038.5332516395,-153.0
567038.5410070556,-162.0
567038.5487624716,-158.0
567038.5565178879,-139.0
567038.564273304,-124.0
567038.57202872,-127.0
567038.5797841361,-134.0
567038.5875395524,-143.0
567038.5952949685,-153.0
567038.6030503846,-150.0
567038.6108058007,-148.0
567038.6185612167,-150.0
567038.626316633,-148.0
567038.634072049,-148.0
567038.6418274652,-148.0
567038.6495828812,-146.0
567038.6573382973,-146.0
567038.6650937136,-146.0
567038.6728491297,-150.0
567038.6806045457,-100.0
567038.6883599618,196.0
567038.6961153779,663.0
567038.7038707942,750.0
567038.7116262102,170.0
567038.7193816263,-417.0
567038.7271370424,-381.0
567038.7348924587,-170.0
567038.7426478748,-218.0
567038.7504032908,-256.0
567038.758158707,-198.0
567038.765914123,-198.0
567038.7736695393,-215.0
567038.7814249553,-194.0
567038.7891803714,-184.0
567038.7969357875,-189.0
567038.8046912036,-182.0
567038.8124466198,-167.0
567038.820202036,-162.0
567038.827957452,-158.0
567038.8357128681,-153.0
567038.8434682844,-146.0
567038.8512237004,-139.0
567038.8589791165,-129.0
567038.8667345326,-122.0
567038.8744899487,-112.0
567038.882245365,-103.0
567038.890000781,-93.0
567038.8977561971,-88.0
567038.9055116132,-79.0
567038.9132670293,-71.0
567038.9210224455,-74.0
567038.9287778616,-79.0
567038.9365332777,-81.0
567038.9442886938,-86.0
567038.95204411,-93.0
567038.9597995261,-100.0
567038.9675549422,-110.0
567038.9753103583,-119.0
567038.9830657744,-129.0
567038.9908211906,-136.0
567038.9985766067,-146.0
567039.0063320228,-158.0
567039.0140874389,-170.0
567039.021842855,-174.0
567039.0295982712,-174.0
567039.0373536873,-177.0
567039.0451091034,-177.0
567039.0528645195,-182.0
567039.0606199356,-184.0
567039.0683753518,-182.0
567039.0761307679,-179.0
567039.083886184,-174.0
567039.0916416001,-167.0
567039.0993970163,-162.0
567039.1071524324,-160.0
567039.1149078485,-158.0
567039.1226632646,-155.0
567039.1304186807,-150.0
567039.1381740969,-148.0
567039.145929513,-148.0
567039.1536849291,-146.0
567039.1614403452,-146.0
567039.1691957613,-146.0
567039.1769511775,-146.0
567039.1847065936,-143.0
567039.1924620097,-143.0
567039.2002174258,-148.0
567039.207972842,-150.0
567039.2157282581,-150.0
567039.2234836742,-150.0
567039.2312390903,-150.0
567039.2389945064,-150.0
567039.2467499226,-148.0
567039.2545053387,-146.0
567039.2622607548,-146.0
567039.2700161709,-146.0
567039.277771587,-143.0
567039.2855270032,-143.0
567039.2932824193,-141.0
567039.3010378354,-139.0
567039.3087932515,-139.0
567039.3165486677,-136.0
567039.3243040838,-139.0
567039.3320594999,-139.0
567039.339814916,-139.0
567039.3475703321,-136.0
567039.3553257483,-136.0
567039.3630811644,-134.0
567039.3708365805,-131.0
567039.3785919966,-134.0
567039.3863474127,-134.0
567039.3941028289,-136.0
567039.401858245,-143.0
567039.4096136611,-143.0
567039.4173690772,-129.0
567039.4251244933,-110.0
567039.4328799095,-98.0
567039.4406353256,-105.0
567039.4483907417,-122.0
567039.4561461578,-136.0
567039.463901574,-148.0
567039.4716569901,-148.0
567039.4794124062,-146.0
567039.4871678223,-148.0
567039.4949232384,-148.0
567039.5026786546,-148.0
567039.5104340707,-143.0
567039.5181894868,-141.0
567039.5259449029,-141.0
567039.533700319,-141.0
567039.5414557352,-143.0
567039.5492111513,-21.0
567039.5569665674,383.0
567039.5647219835,781.0
567039.5724773997,589.0
567039.5802328158,-105.0
567039.5879882319,-455.0
567039.595743648,-258.0
567039.6034990641,-150.0
567039.6112544803,-237.0
567039.6190098964,-215.0
567039.6267653125,-172.0
567039.6345207286,-194.0
567039.6422761447,-196.0
567039.6500315609,-174.0
567039.657786977,-174.0
567039.6655423931,-174.0
567039.6732978092,-162.0
567039.6810532254,-155.0
567039.6888086415,-153.0
567039.6965640576,-143.0
567039.7043194737,-139.0
567039.7120748898,-131.0
567039.719830306,-124.0
567039.7275857221,-115.0
567039.7353411382,-105.0
567039.7430965543,-100.0
567039.7508519704,-91.0
567039.7586073866,-79.0
567039.7663628027,-69.0
567039.7741182188,-62.0
567039.7818736349,-57.0
567039.7896290511,-59.0
567039.7973844672,-59.0
567039.8051398833,-62.0
567039.8128952994,-69.0
567039.8206507155,-81.0
567039.8284061317,-86.0
567039.8361615478,-91.0
567039.8439169639,-98.0
567039.85167238,-107.0
567039.8594277961,-117.0
567039.8671832123,-134.0
567039.8749386284,-146.0
567039.8826940445,-153.0
567039.8904494606,-160.0
567039.8982048767,-162.0
567039.9059602929,-162.0
567039.913715709,-162.0
567039.9214711251,-162.0
567039.9292265412,-162.0
567039.9369819574,-158.0
567039.9447373735,-153.0
567039.9524927896,-153.0
567039.9602482057,-153.0
567039.9680036218,-148.0
567039.975759038,-143.0
567039.9835144541,-139.0
567039.9912698702,-139.0
567039.9990252863,-136.0
567040.0067807024,-136.0
567040.0145361186,-139.0
567040.0222915347,-139.0
567040.0300469508,-136.0
567040.0378023669,-134.0
567040.0455577831,-136.0
567040.0533131992,-136.0
567040.0610686153,-136.0
567040.0688240314,-139.0
567040.0765794475,-143.0
567040.0843348637,-143.0
567040.0920902798,-143.0
567040.0998456959,-143.0
567040.107601112,-143.0
567040.1153565281,-141.0
567040.1231119443,-136.0
567040.1308673604,-136.0
567040.1386227765,-139.0
567040.1463781926,-141.0
567040.1541336088,-139.0
567040.1618890249,-136.0
567040.169644441,-134.0
567040.1773998571,-136.0
567040.1851552732,-134.0
567040.1929106894,-131.0
567040.2006661055,-134.0
567040.2084215216,-134.0
567040.2161769377,-131.0
567040.2239323538,-131.0
567040.23168777,-134.0
567040.2394431861,-134.0
567040.2471986022,-134.0
567040.2549540183,-136.0
567040.2627094344,-141.0
567040.2704648506,-143.0
567040.2782202667,-139.0
567040.2859756828,-124.0
567040.2937310989,-100.0
567040.3014865151,-88.0
567040.3092419312,-105.0
567040.3169973473,-127.0
567040.3247527634,-136.0
567040.3325081795,-139.0
567040.3402635957,-139.0
567040.3480190118,-134.0
567040.3557744279,-131.0
567040.363529844,-131.0
567040.3712852601,-134.0
567040.3790406763,-136.0
567040.3867960924,-136.0
567040.3945515085,-131.0
567040.4023069246,-129.0
567040.4100623408,-131.0
567040.4178177569,11.0
567040.425573173,436.0
567040.4333285891,795.0
567040.4410840052,522.0
567040.4488394214,-172.0
567040.4565948375,-436.0
567040.4643502536,-220.0
567040.4721056697,-148.0
567040.4798610858,-225.0
567040.487616502,-194.0
567040.4953719181,-160.0
567040.5031273342,-184.0
567040.5108827503,-179.0
567040.5186381665,-155.0
567040.5263935826,-155.0
567040.5341489987,-155.0
567040.5419044148,-141.0
567040.5496598309,-136.0
567040.5574152471,-136.0
567040.5651706632,-127.0
567040.5729260793,-117.0
567040.5806814954,-115.0
567040.5884369115,-112.0
567040.5961923277,-103.0
567040.6039477438,-95.0
567040.6117031599,-91.0
567040.619458576,-74.0
567040.6272139921,-62.0
567040.6349694083,-59.0
567040.6427248244,-52.0
567040.6504802405,-50.0
567040.6582356566,-52.0
567040.6659910728,-50.0
567040.6737464889,-55.0
567040.681501905,-64.0
567040.6892573211,-71.0
567040.6970127372,-81.0
567040.7047681534,-88.0
567040.7125235695,-93.0
567040.7202789856,-100.0
567040.7280344017,-119.0
567040.7357898178,-131.0
567040.743545234,-136.0
567040.7513006501,-143.0
567040.7590560662,-153.0
567040.7668114823,-158.0
567040.7745668985,-160.0
567040.7823223146,-160.0
567040.7900777307,-160.0
567040.7978331468,-150.0
567040.8055885629,-148.0
567040.8133439791,-153.0
567040.8210993952,-143.0
567040.8288548113,-136.0
567040.8366102274,-143.0
567040.8443656435,-143.0
567040.8521210597,-134.0
567040.8598764758,-129.0
567040.8676318919,-127.0
567040.875387308,-124.0
567040.8831427242,-119.0
567040.8908981403,-122.0
567040.8986535564,-124.0
567040.9064089725,-122.0
567040.9141643886,-124.0
567040.9219198048,-131.0
567040.9296752209,-131.0
567040.937430637,-127.0
567040.945186053,-124.0
567040.9529414691,-129.0
567040.9606968854,-124.0
567040.9684523015,-122.0
567040.9762077176,-134.0
567040.9839631337,-139.0
567040.9917185499,-124.0
567040.999473966,-124.0
567041.007229382,-131.0
567041.0149847982,-127.0
567041.0227402142,-122.0
567041.0304956305,-131.0
567041.0382510466,-131.0
567041.0460064627,-119.0
567041.0537618787,-117.0
567041.0615172948,-122.0
567041.069272711,-131.0
567041.0770281272,-131.0
567041.0847835433,-127.0
567041.0925389593,-134.0
567041.1002943754,-143.0
567041.1080497917,-136.0
567041.1158052078,-119.0
567041.1235606238,-100.0
567041.13131604,-88.0
567041.1390714562,-91.0
567041.1468268723,-112.0
567041.1545822883,-129.0
567041.1623377044,-129.0
567041.1700931205,-127.0
567041.1778485368,-136.0
567041.1856039529,-136.0
567041.193359369,-131.0
567041.201114785,-136.0
567041.2088702011,-139.0
567041.2166256174,-134.0
567041.2243810334,-124.0
567041.2321364495,-119.0
567041.2398918656,-131.0
567041.2476472819,-110.0
567041.255402698,146.0
567041.263158114,608.0
567041.2709135301,707.0
567041.2786689462,122.0
567041.2864243624,-428.0
567041.2941797785,-345.0
567041.3019351946,-139.0
567041.3096906107,-191.0
567041.3174460268,-213.0
567041.325201443,-153.0
567041.3329568591,-162.0
567041.3407122752,-172.0
567041.3484676913,-146.0
567041.3562231075,-141.0
567041.3639785236,-141.0
567041.3717339397,-131.0
567041.3794893558,-129.0
567041.3872447719,-119.0
567041.3950001881,-110.0
567041.4027556042,-107.0
567041.4105110203,-98.0
567041.4182664364,-93.0
567041.4260218525,-93.0
567041.4337772687,-79.0
567041.4415326848,-67.0
567041.4492881009,-64.0
567041.457043517,-57.0
567041.4647989331,-38.0
567041.4725543493,-33.0
567041.4803097654,-38.0
567041.4880651815,-28.0
567041.4958205976,-26.0
567041.5035760138,-38.0
567041.5113314299,-47.0
567041.519086846,-55.0
567041.5268422621,-64.0
567041.5345976782,-71.0
567041.5423530944,-81.0
567041.5501085105,-100.0
567041.5578639266,-112.0
567041.5656193427,-119.0
567041.5733747588,-131.0
567041.581130175,-143.0
567041.5888855911,-155.0
567041.5966410072,-170.0
567041.6043964233,-177.0
567041.6121518395,-170.0
567041.6199072556,-170.0
567041.6276626717,-172.0
567041.6354180878,-167.0
567041.6431735039,-162.0
567041.6509289201,-158.0
567041.6586843362,-158.0
567041.6664397523,-153.0
567041.6741951684,-148.0
567041.6819505845,-146.0
567041.6897060007,-143.0
567041.6974614168,-139.0
567041.7052168329,-139.0
567041.712972249,-136.0
567041.7207276652,-136.0
567041.7284830813,-141.0
567041.7362384974,-146.0
567041.7439939135,-146.0
567041.7517493296,-146.0
567041.7595047458,-146.0
567041.7672601619,-146.0
567041.775015578,-146.0
567041.7827709941,-148.0
567041.7905264102,-148.0
567041.7982818264,-148.0
567041.8060372425,-146.0
567041.8137926586,-143.0
567041.8215480747,-148.0
567041.8293034908,-153.0
567041.837058907,-148.0
567041.8448143231,-146.0
567041.8525697392,-148.0
567041.8603251553,-150.0
567041.8680805715,-148.0
567041.8758359876,-150.0
567041.8835914037,-150.0
567041.8913468198,-148.0
567041.8991022359,-148.0
567041.9068576521,-150.0
567041.9146130682,-153.0
567041.9223684843,-155.0
567041.9301239004,-155.0
567041.9378793165,-146.0
567041.9456347327,-129.0
567041.9533901488,-107.0
567041.9611455649,-105.0
567041.968900981,-122.0
567041.9766563972,-139.0
567041.9844118133,-148.0
567041.9921672294,-150.0
567041.9999226455,-148.0
567042.0076780616,-150.0
567042.0154334778,-150.0
567042.0231888939,-148.0
567042.03094431,-146.0
567042.0386997261,-146.0
567042.0464551422,-146.0
567042.0542105584,-143.0
567042.0619659745,-143.0
567042.0697213906,-139.0
567042.0774768067,0.0
567042.0852322229,414.0
567042.092987639,778.0
567042.1007430551,503.0
567042.1084984712,-206.0
567042.1162538873,-462.0
567042.1240093035,-234.0
567042.1317647196,-162.0
567042.1395201357,-239.0
567042.1472755518,-208.0
567042.1550309679,-174.0
567042.1627863841,-196.0
567042.1705418002,-186.0
567042.1782972163,-170.0
567042.1860526324,-172.0
567042.1938080485,-172.0
567042.2015634647,-160.0
567042.2093188808,-155.0
567042.2170742969,-148.0
567042.224829713,-141.0
567042.2325851292,-134.0
567042.2403405453,-129.0
567042.2480959614,-119.0
567042.2558513775,-110.0
567042.2636067936,-100.0
567042.2713622098,-93.0
567042.2791176259,-86.0
567042.286873042,-79.0
567042.2946284581,-64.0
567042.3023838742,-57.0
567042.3101392904,-57.0
567042.3178947065,-57.0
567042.3256501226,-64.0
567042.3334055387,-79.0
567042.3411609549,-83.0
567042.348916371,-91.0
567042.3566717871,-98.0
567042.3644272032,-103.0
567042.3721826193,-110.0
567042.3799380355,-119.0
567042.3876934516,-127.0
567042.3954488677,-136.0
567042.4032042838,-146.0
567042.4109596999,-153.0
567042.4187151161,-162.0
567042.4264705322,-167.0
567042.4342259483,-170.0
567042.4419813644,-170.0
567042.4497367806,-170.0
567042.4574921967,-167.0
567042.4652476128,-162.0
567042.4730030289,-158.0
567042.480758445,-153.0
567042.4885138612,-150.0
567042.4962692773,-146.0
567042.5040246934,-141.0
567042.5117801095,-141.0
567042.5195355256,-139.0
567042.5272909418,-134.0
567042.5350463579,-131.0
567042.542801774,-129.0
567042.5505571901,-129.0
567042.5583126063,-131.0
567042.5660680224,-134.0
567042.5738234385,-131.0
567042.5815788546,-131.0
567042.5893342707,-134.0
567042.5970896869,-134.0
567042.604845103,-136.0
567042.6126005191,-136.0
567042.6203559352,-139.0
567042.6281113513,-141.0
567042.6358667675,-141.0
567042.6436221836,-141.0
567042.6513775997,-143.0
567042.6591330158,-141.0
567042.6668884319,-139.0
567042.6746438481,-139.0
567042.6823992642,-139.0
567042.6901546803,-143.0
567042.6979100964,-141.0
567042.7056655126,-141.0
567042.7134209287,-143.0
567042.7211763448,-143.0
567042.7289317609,-143.0
567042.736687177,-146.0
567042.7444425932,-143.0
567042.7521980093,-141.0
567042.7599534254,-143.0
567042.7677088415,-150.0
567042.7754642576,-146.0
567042.7832196738,-127.0
567042.7909750899,-98.0
567042.798730506,-88.0
567042.8064859221,-103.0
567042.8142413383,-122.0
567042.8219967544,-131.0
567042.8297521705,-136.0
567042.8375075866,-136.0
567042.8452630027,-136.0
567042.8530184189,-136.0
567042.860773835,-136.0
567042.8685292511,-134.0
567042.8762846672,-139.0
567042.8840400833,-139.0
567042.8917954995,-134.0
567042.8995509156,-131.0
567042.9073063317,-136.0
567042.9150617478,-67.0
567042.922817164,261.0
567042.9305725801,716.0
567042.9383279962,716.0
567042.9460834123,86.0
567042.9538388284,-421.0
567042.9615942446,-313.0
567042.9693496607,-136.0
567042.9771050768,-206.0
567042.9848604929,-220.0
567042.992615909,-165.0
567043.0003713252,-177.0
567043.0081267413,-186.0
567043.0158821574,-165.0
567043.0236375735,-158.0
567043.0313929896,-160.0
567043.0391484058,-150.0
567043.0469038219,-141.0
567043.054659238,-141.0
567043.0624146541,-136.0
567043.0701700703,-124.0
567043.0779254864,-117.0
567043.0856809025,-110.0
567043.0934363186,-103.0
567043.1011917347,-95.0
567043.1089471509,-86.0
567043.116702567,-76.0
567043.1244579831,-67.0
567043.1322133992,-62.0
567043.1399688153,-62.0
567043.1477242315,-55.0
567043.1554796476,-52.0
567043.1632350637,-52.0
567043.1709904798,-59.0
567043.178745896,-71.0
567043.1865013121,-81.0
567043.1942567282,-88.0
567043.2020121443,-95.0
567043.2097675604,-103.0
567043.2175229766,-110.0
567043.2252783927,-117.0
567043.2330338088,-129.0
567043.2407892249,-143.0
567043.248544641,-150.0
567043.2563000572,-155.0
567043.2640554733,-160.0
567043.2718108894,-162.0
567043.2795663055,-162.0
567043.2873217217,-162.0
567043.2950771378,-158.0
567043.3028325539,-155.0
567043.31058797,-155.0
567043.318343386,-153.0
567043.3260988023,-146.0
567043.3338542184,-141.0
567043.3416096345,-139.0
567043.3493650506,-139.0
567043.3571204667,-136.0
567043.3648758829,-134.0
567043.372631299,-131.0
567043.380386715,-131.0
567043.3881421312,-129.0
567043.3958975472,-129.0
567043.4036529635,-129.0
567043.4114083796,-131.0
567043.4191637957,-136.0
567043.4269192117,-139.0
567043.434674628,-141.0
567043.4424300441,-139.0
567043.4501854602,-139.0
567043.4579408763,-141.0
567043.4656962923,-143.0
567043.4734517086,-139.0
567043.4812071247,-136.0
567043.4889625408,-136.0
567043.4967179568,-139.0
567043.504473373,-136.0
567043.5122287892,-134.0
567043.5199842053,-134.0
567043.5277396213,-136.0
567043.5354950374,-136.0
567043.5432504537,-134.0
567043.5510058698,-131.0
567043.5587612859,-131.0
567043.566516702,-129.0
567043.574272118,-131.0
567043.5820275343,-134.0
567043.5897829504,-134.0
567043.5975383664,-136.0
567043.6052937825,-141.0
567043.6130491986,-148.0
567043.6208046149,-141.0
567043.628560031,-117.0
567043.636315447,-93.0
567043.6440708631,-88.0
567043.6518262794,-107.0
567043.6595816955,-124.0
567043.6673371115,-131.0
567043.6750925276,-139.0
567043.6828479437,-141.0
567043.69060336,-139.0
567043.698358776,-141.0
567043.7061141921,-141.0
567043.7138696082,-139.0
567043.7216250243,-139.0
567043.7293804405,-136.0
567043.7371358566,-131.0
567043.7448912727,-131.0
567043.7526466888,-139.0
567043.760402105,-52.0
567043.7681575211,304.0
567043.7759129372,742.0
567043.7836683533,661.0
567043.7914237694,4.0
567043.7991791856,-428.0
567043.8069346017,-275.0
567043.8146900178,-127.0
567043.8224454339,-206.0
567043.83020085,-208.0
567043.8379562662,-158.0
567043.8457116823,-174.0
567043.8534670984,-179.0
567043.8612225145,-155.0
567043.8689779306,-155.0
567043.8767333468,-160.0
567043.8844887629,-148.0
567043.892244179,-139.0
567043.8999995951,-134.0
567043.9077550113,-129.0
567043.9155104274,-122.0
567043.9232658435,-115.0
567043.9310212596,-107.0
567043.9387766757,-100.0
567043.9465320919,-93.0
567043.954287508,-81.0
567043.9620429241,-76.0
567043.9697983402,-67.0
567043.9775537563,-59.0
567043.9853091725,-52.0
567043.9930645886,-45.0
567044.0008200047,-45.0
567044.0085754208,-55.0
567044.016330837,-59.0
567044.0240862531,-64.0
567044.0318416692,-71.0
567044.0395970853,-81.0
567044.0473525014,-88.0
567044.0551079176,-95.0
567044.0628633337,-105.0
567044.0706187498,-117.0
567044.0783741659,-129.0
567044.086129582,-136.0
567044.0938849982,-143.0
567044.1016404143,-155.0
567044.1093958304,-162.0
567044.1171512465,-162.0
567044.1249066627,-162.0
567044.1326620788,-160.0
567044.1404174949,-158.0
567044.148172911,-160.0
567044.1559283271,-158.0
567044.1636837433,-155.0
567044.1714391594,-153.0
567044.1791945755,-150.0
567044.1869499916,-153.0
567044.1947054077,-153.0
567044.2024608239,-146.0
567044.21021624,-141.0
567044.2179716561,-141.0
567044.2257270722,-143.0
567044.2334824883,-139.0
567044.2412379045,-134.0
567044.2489933206,-139.0
567044.2567487367,-141.0
567044.2645041528,-139.0
567044.272259569,-141.0
567044.2800149851,-141.0
567044.2877704012,-134.0
567044.2955258173,-134.0
567044.3032812334,-141.0
567044.3110366496,-139.0
567044.3187920657,-134.0
567044.3265474818,-131.0
567044.3343028979,-131.0
567044.342058314,-134.0
567044.3498137302,-136.0
567044.3575691463,-136.0
567044.3653245624,-131.0
567044.3730799785,-129.0
567044.3808353947,-129.0
567044.3885908108,-136.0
567044.3963462269,-139.0
567044.404101643,-129.0
567044.4118570591,-127.0
567044.4196124753,-136.0
567044.4273678914,-139.0
567044.4351233075,-139.0
567044.4428787236,-143.0
567044.4506341397,-146.0
567044.4583895559,-134.0
567044.466144972,-112.0
567044.4739003881,-91.0
567044.4816558042,-95.0
567044.4894112204,-115.0
567044.4971666365,-131.0
567044.5049220526,-143.0
567044.5126774687,-148.0
567044.5204328848,-143.0
567044.528188301,-146.0
567044.5359437171,-146.0
567044.5436991332,-141.0
567044.5514545493,-139.0
567044.5592099654,-136.0
567044.5669653816,-134.0
567044.5747207977,-139.0
567044.5824762138,-141.0
567044.5902316299,-131.0
567044.597987046,14.0
567044.6057424622,426.0
567044.6134978783,745.0
567044.6212532944,402.0
567044.6290087105,-275.0
567044.6367641267,-438.0
567044.6445195428,-201.0
567044.6522749589,-167.0
567044.660030375,-234.0
567044.6677857911,-196.0
567044.6755412073,-174.0
567044.6832966234,-191.0
567044.6910520395,-179.0
567044.6988074556,-170.0
567044.7065628717,-172.0
567044.7143182879,-160.0
567044.722073704,-150.0
567044.7298291201,-148.0
567044.7375845362,-139.0
567044.7453399524,-129.0
567044.7530953685,-127.0
567044.7608507846,-117.0
567044.7686062007,-103.0
567044.7763616168,-95.0
567044.784117033,-93.0
567044.7918724491,-83.0
567044.7996278652,-71.0
567044.8073832813,-64.0
567044.8151386974,-59.0
567044.8228941136,-47.0
567044.8306495297,-40.0
567044.8384049458,-35.0
567044.8461603619,-43.0
567044.8539157781,-57.0
567044.8616711942,-67.0
567044.8694266103,-76.0
567044.8771820264,-83.0
567044.8849374425,-83.0
567044.8926928587,-98.0
567044.9004482748,-119.0
567044.9082036909,-122.0
567044.915959107,-124.0
567044.9237145231,-146.0
567044.9314699393,-170.0
567044.9392253554,-172.0
567044.9469807715,-167.0
567044.9547361876,-174.0
567044.9624916038,-179.0
567044.9702470199,-177.0
567044.978002436,-172.0
567044.9857578521,-165.0
567044.9935132682,-162.0
567045.0012686844,-160.0
567045.0090241005,-153.0
567045.0167795166,-141.0
567045.0245349327,-146.0
567045.0322903488,-153.0
567045.040045765,-143.0
567045.0478011811,-134.0
567045.0555565972,-139.0
567045.0633120133,-141.0
567045.0710674294,-134.0
567045.0788228456,-134.0
567045.0865782617,-139.0
567045.0943336778,-136.0
567045.1020890939,-136.0
567045.1098445101,-141.0
567045.1175999262,-146.0
567045.1253553423,-141.0
567045.1331107584,-136.0
567045.1408661745,-141.0
567045.1486215907,-148.0
567045.1563770068,-148.0
567045.1641324229,-146.0
567045.171887839,-150.0
567045.1796432551,-150.0
567045.1873986713,-148.0
567045.1951540874,-150.0
567045.2029095035,-146.0
567045.2106649196,-143.0
567045.2184203358,-148.0
567045.2261757519,-148.0
567045.233931168,-146.0
567045.2416865841,-150.0
567045.2494420002,-153.0
567045.2571974164,-153.0
567045.2649528325,-150.0
567045.2727082486,-141.0
567045.2804636647,-117.0
567045.2882190808,-98.0
567045.295974497,-107.0
567045.3037299131,-129.0
567045.3114853292,-141.0
567045.3192407453,-148.0
567045.3269961615,-155.0
567045.3347515776,-155.0
567045.3425069937,-150.0
567045.3502624098,-150.0
567045.3580178259,-155.0
567045.3657732421,-153.0
567045.3735286582,-150.0
567045.3812840743,-150.0
567045.3890394904,-148.0
567045.3967949065,-148.0
567045.4045503227,-143.0
567045.4123057388,19.0
567045.4200611549,450.0
567045.427816571,747.0
567045.4355719871,361.0
567045.4433274033,-318.0
567045.4510828194,-450.0
567045.4588382355,-208.0
567045.4665936516,-174.0
567045.4743490678,-234.0
567045.4821044839,-189.0
567045.4898599,-172.0
567045.4976153161,-191.0
567045.5053707322,-174.0
567045.5131261484,-160.0
567045.5208815645,-165.0
567045.5286369806,-160.0
567045.5363923967,-150.0
567045.5441478128,-143.0
567045.551903229,-141.0
567045.5596586451,-136.0
567045.5674140612,-127.0
567045.5751694773,-115.0
567045.5829248935,-105.0
567045.5906803096,-103.0
567045.5984357257,-95.0
567045.6061911418,-83.0
567045.6139465579,-76.0
567045.6217019741,-67.0
567045.6294573902,-57.0
567045.6372128063,-57.0
567045.6449682224,-52.0
567045.6527236385,-52.0
567045.6604790547,-62.0
567045.6682344708,-71.0
567045.6759898869,-86.0
567045.683745303,-100.0
567045.6915007192,-117.0
567045.6992561353,-124.0
567045.7070115514,-127.0
567045.7147669675,-134.0
567045.7225223836,-150.0
567045.7302777998,-162.0
567045.7380332159,-172.0
567045.745788632,-177.0
567045.753544048,-179.0
567045.7612994642,-184.0
567045.7690548804,-189.0
567045.7768102965,-189.0
567045.7845657126,-184.0
567045.7923211287,-179.0
567045.8000765448,-172.0
567045.807831961,-167.0
567045.8155873771,-165.0
567045.8233427932,-162.0
567045.8310982093,-158.0
567045.8388536255,-153.0
567045.8466090416,-146.0
567045.8543644577,-143.0
567045.8621198738,-146.0
567045.8698752898,-146.0
567045.8776307061,-143.0
567045.8853861222,-141.0
567045.8931415383,-143.0
567045.9008969544,-146.0
567045.9086523704,-143.0
567045.9164077867,-148.0
567045.9241632028,-148.0
567045.9319186189,-146.0
567045.939674035,-148.0
567045.9474294512,-148.0
567045.9551848673,-148.0
567045.9629402834,-148.0
567045.9706956994,-148.0
567045.9784511155,-146.0
567045.9862065318,-143.0
567045.9939619479,-143.0
567046.001717364,-143.0
567046.00947278,-141.0
567046.0172281961,-141.0
567046.0249836124,-141.0
567046.0327390285,-139.0
567046.0404944445,-139.0
567046.0482498606,-139.0
567046.0560052769,-139.0
567046.063760693,-141.0
567046.071516109,-139.0
567046.0792715251,-136.0
567046.0870269412,-141.0
567046.0947823575,-148.0
567046.1025377735,-150.0
567046.1102931896,-136.0
567046.1180486057,-110.0
567046.1258040218,-93.0
567046.133559438,-103.0
567046.1413148541,-127.0
567046.1490702702,-141.0
567046.1568256863,-143.0
567046.1645811026,-146.0
567046.1723365186,-148.0
567046.1800919347,-150.0
567046.1878473508,-150.0
567046.1956027669,-150.0
567046.2033581831,-153.0
567046.2111135992,-153.0
567046.2188690153,-148.0
567046.2266244314,-146.0
567046.2343798475,-148.0
567046.2421352637,-131.0
567046.2498906798,79.0
567046.2576460959,539.0
567046.265401512,802.0
567046.2731569281,390.0
567046.2809123443,-297.0
567046.2886677604,-440.0
567046.2964231765,-198.0
567046.3041785926,-179.0
567046.3119340088,-251.0
567046.3196894249,-201.0
567046.327444841,-182.0
567046.3352002571,-206.0
567046.3429556732,-191.0
567046.3507110894,-170.0
567046.3584665055,-174.0
567046.3662219216,-170.0
567046.3739773377,-160.0
567046.3817327538,-155.0
567046.38948817,-148.0
567046.3972435861,-139.0
567046.4049990022,-131.0
567046.4127544183,-129.0
567046.4205098345,-122.0
567046.4282652506,-110.0
567046.4360206667,-100.0
567046.4437760828,-93.0
567046.4515314989,-83.0
567046.4592869151,-74.0
567046.4670423312,-67.0
567046.4747977473,-59.0
567046.4825531634,-59.0
567046.4903085795,-57.0
567046.4980639957,-59.0
567046.5058194118,-67.0
567046.5135748279,-76.0
567046.521330244,-86.0
567046.5290856602,-91.0
567046.5368410763,-95.0
567046.5445964924,-103.0
567046.5523519085,-112.0
567046.5601073246,-127.0
567046.5678627408,-141.0
567046.5756181569,-150.0
567046.583373573,-153.0
567046.5911289891,-158.0
567046.5988844052,-162.0
567046.6066398214,-167.0
567046.6143952375,-165.0
567046.6221506536,-162.0
567046.6299060697,-158.0
567046.6376614858,-155.0
567046.645416902,-155.0
567046.6531723181,-150.0
567046.6609277342,-148.0
567046.6686831503,-148.0
567046.6764385665,-148.0
567046.6841939826,-143.0
567046.6919493987,-141.0
567046.6997048148,-139.0
567046.7074602309,-143.0
567046.7152156471,-143.0
567046.7229710632,-139.0
567046.7307264793,-139.0
567046.7384818954,-143.0
567046.7462373115,-141.0
567046.7539927277,-139.0
567046.7617481438,-139.0
567046.7695035599,-141.0
567046.777258976,-141.0
567046.7850143922,-141.0
567046.7927698083,-141.0
567046.8005252244,-141.0
567046.8082806405,-139.0
567046.8160360566,-136.0
567046.8237914728,-139.0
567046.8315468889,-141.0
567046.839302305,-139.0
567046.8470577211,-136.0
567046.8548131372,-136.0
567046.8625685534,-134.0
567046.8703239695,-134.0
567046.8780793856,-134.0
567046.8858348017,-129.0
567046.8935902179,-129.0
567046.901345634,-131.0
567046.9091010501,-131.0
567046.9168564662,-131.0
567046.9246118823,-136.0
567046.9323672985,-141.0
567046.9401227146,-146.0
567046.9478781307,-136.0
567046.9556335468,-110.0
567046.9633889629,-86.0
567046.9711443791,-91.0
567046.9788997952,-110.0
567046.9866552113,-124.0
567046.9944106274,-127.0
567047.0021660435,-131.0
567047.0099214597,-136.0
567047.0176768758,-134.0
567047.0254322919,-131.0
567047.033187708,-131.0
567047.0409431242,-129.0
567047.0486985403,-129.0
567047.0564539564,-129.0
567047.0642093725,-122.0
567047.0719647886,-122.0
567047.0797202048,-119.0
567047.0874756209,31.0
567047.095231037,452.0
567047.1029864531,805.0
567047.1107418692,527.0
567047.1184972854,-167.0
567047.1262527015,-426.0
567047.1340081176,-201.0
567047.1417635337,-131.0
567047.1495189499,-218.0
567047.157274366,-186.0
567047.1650297821,-153.0
567047.1727851982,-177.0
567047.1805406143,-167.0
567047.1882960305,-148.0
567047.1960514466,-153.0
567047.2038068627,-150.0
567047.2115622788,-143.0
567047.2193176949,-139.0
567047.2270731111,-134.0
567047.2348285272,-124.0
567047.2425839433,-117.0
567047.2503393594,-110.0
567047.2580947756,-100.0
567047.2658501917,-91.0
567047.2736056078,-79.0
567047.2813610239,-69.0
567047.28911644,-59.0
567047.2968718562,-50.0
567047.3046272723,-40.0
567047.3123826884,-38.0
567047.3201381045,-33.0
567047.3278935206,-33.0
567047.3356489368,-35.0
567047.3434043529,-40.0
567047.351159769,-47.0
567047.3589151851,-57.0
567047.3666706012,-64.0
567047.3744260174,-71.0
567047.3821814335,-79.0
567047.3899368496,-93.0
567047.3976922657,-107.0
567047.4054476819,-122.0
567047.413203098,-139.0
567047.4209585141,-150.0
567047.4287139302,-153.0
567047.4364693463,-155.0
567047.4442247625,-158.0
567047.4519801786,-158.0
567047.4597355947,-155.0
567047.4674910108,-155.0
567047.4752464269,-150.0
567047.4830018431,-143.0
567047.4907572592,-143.0
567047.4985126753,-141.0
567047.5062680914,-134.0
567047.5140235076,-131.0
567047.5217789237,-129.0
567047.5295343398,-127.0
567047.5372897559,-124.0
567047.545045172,-122.0
567047.5528005882,-122.0
567047.5605560043,-119.0
567047.5683114204,-117.0
567047.5760668365,-119.0
567047.5838222526,-122.0
567047.5915776688,-122.0
567047.5993330849,-119.0
567047.607088501,-119.0
567047.6148439171,-122.0
567047.6225993333,-119.0
567047.6303547494,-119.0
567047.6381101655,-122.0
567047.6458655816,-122.0
567047.6536209977,-122.0
567047.6613764139,-127.0
567047.66913183,-127.0
567047.6768872461,-124.0
567047.6846426622,-124.0
567047.6923980783,-122.0
567047.7001534945,-117.0
567047.7079089106,-117.0
567047.7156643267,-122.0
567047.7234197428,-124.0
567047.731175159,-127.0
567047.7389305751,-131.0
567047.7466859912,-131.0
567047.7544414073,-129.0
567047.7621968234,-129.0
567047.7699522396,-139.0
567047.7777076557,-146.0
567047.7854630718,-136.0
567047.7932184879,-110.0
567047.800973904,-83.0
567047.8087293202,-83.0
567047.8164847363,-110.0
567047.8242401524,-129.0
567047.8319955685,-134.0
567047.8397509846,-136.0
567047.8475064008,-134.0
567047.8552618169,-136.0
567047.863017233,-141.0
567047.8707726491,-141.0
567047.8785280653,-139.0
567047.8862834814,-134.0
567047.8940388975,-134.0
567047.9017943136,-131.0
567047.9095497297,-136.0
567047.9173051459,-146.0
567047.925060562,-38.0
567047.9328159781,347.0
567047.9405713942,747.0
567047.9483268103,577.0
567047.9560822265,-103.0
567047.9638376426,-448.0
567047.9715930587,-249.0
567047.9793484748,-136.0
567047.987103891,-218.0
567047.9948593071,-203.0
567048.0026147232,-162.0
567048.0103701393,-189.0
567048.0181255554,-189.0
567048.0258809716,-162.0
567048.0336363877,-160.0
567048.0413918038,-162.0
567048.0491472199,-153.0
567048.056902636,-143.0
567048.0646580522,-139.0
567048.0724134683,-134.0
567048.0801688844,-127.0
567048.0879243005,-119.0
567048.0956797167,-112.0
567048.1034351328,-103.0
567048.1111905489,-91.0
567048.118945965,-83.0
567048.126701381,-76.0
567048.1344567973,-62.0
567048.1422122134,-52.0
567048.1499676295,-52.0
567048.1577230456,-55.0
567048.1654784617,-50.0
567048.1732338779,-50.0
567048.180989294,-59.0
567048.1887447101,-67.0
567048.1965001262,-76.0
567048.2042555423,-83.0
567048.2120109585,-86.0
567048.2197663746,-95.0
567048.2275217907,-115.0
567048.2352772068,-131.0
567048.243032623,-146.0
567048.2507880391,-162.0
567048.2585434552,-172.0
567048.2662988713,-174.0
567048.2740542874,-177.0
567048.2818097036,-184.0
567048.2895651197,-184.0
567048.2973205358,-184.0
567048.3050759519,-174.0
567048.312831368,-167.0
567048.3205867842,-172.0
567048.3283422003,-170.0
567048.3360976164,-162.0
567048.3438530324,-158.0
567048.3516084487,-155.0
567048.3593638648,-155.0
567048.3671192809,-155.0
567048.374874697,-150.0
567048.382630113,-146.0
567048.3903855293,-148.0
567048.3981409454,-150.0
567048.4058963615,-148.0
567048.4136517775,-143.0
567048.4214071936,-146.0
567048.4291626099,-150.0
567048.436918026,-146.0
567048.444673442,-146.0
567048.4524288581,-146.0
567048.4601842744,-146.0
567048.4679396905,-150.0
567048.4756951066,-150.0
567048.4834505226,-148.0
567048.4912059387,-148.0
567048.498961355,-139.0
567048.506716771,-136.0
567048.5144721871,-143.0
567048.5222276032,-146.0
567048.5299830193,-143.0
567048.5377384356,-141.0
567048.5454938516,-139.0
567048.5532492677,-143.0
567048.5610046838,-148.0
567048.5687600999,-139.0
567048.5765155161,-134.0
567048.5842709322,-143.0
567048.5920263483,-148.0
567048.5997817644,-141.0
567048.6075371807,-143.0
567048.6152925967,-153.0
567048.6230480128,-146.0
567048.6308034289,-129.0
567048.638558845,-110.0
567048.6463142612,-98.0
567048.6540696773,-103.0
567048.6618250934,-127.0
567048.6695805095,-141.0
567048.6773359256,-143.0
567048.6850913418,-148.0
567048.692846758,-148.0
567048.700602174,-150.0
567048.7083575901,-150.0
567048.7161130063,-148.0
567048.7238684224,-139.0
567048.7316238385,-134.0
567048.7393792546,-146.0
567048.7471346707,-150.0
567048.754890087,-146.0
567048.762645503,-129.0
567048.7704009191,50.0
567048.7781563352,484.0
567048.7859117513,740.0
567048.7936671675,316.0
567048.8014225836,-333.0
567048.8091779997,-414.0
567048.8169334158,-182.0
567048.824688832,-182.0
567048.8324442481,-230.0
567048.8401996642,-170.0
567048.8479550803,-162.0
567048.8557104964,-189.0
567048.8634659126,-167.0
567048.8712213287,-148.0
567048.8789767448,-155.0
567048.8867321609,-150.0
567048.894487577,-134.0
567048.9022429932,-136.0
567048.9099984093,-134.0
567048.9177538254,-124.0
567048.9255092415,-124.0
567048.9332646577,-112.0
567048.9410200738,-93.0
567048.9487754899,-93.0
567048.956530906,-98.0
567048.9642863221,-76.0
567048.9720417383,-62.0
567048.9797971544,-64.0
567048.9875525705,-52.0
567048.9953079866,-28.0
567049.0030634027,-23.0
567049.0108188189,-40.0
567049.018574235,-52.0
567049.0263296511,-45.0
567049.0340850672,-50.0
567049.0418404833,-69.0
567049.0495958995,-76.0
567049.0573513156,-81.0
567049.0651067317,-93.0
567049.0728621478,-112.0
567049.080617564,-134.0
567049.0883729801,-146.0
567049.0961283962,-165.0
567049.1038838123,-182.0
567049.1116392284,-179.0
567049.1193946446,-177.0
567049.1271500607,-189.0
567049.1349054768,-184.0
567049.1426608929,-172.0
567049.150416309,-179.0
567049.1581717252,-186.0
567049.1659271413,-177.0
567049.1736825574,-165.0
567049.1814379735,-165.0
567049.1891933897,-170.0
567049.1969488058,-153.0
567049.2047042219,-134.0
567049.212459638,-141.0
567049.2202150541,-153.0
567049.2279704703,-148.0
567049.2357258864,-143.0
567049.2434813025,-150.0
567049.2512367186,-150.0
567049.2589921347,-139.0
567049.2667475509,-139.0
567049.274502967,-158.0
567049.2822583831,-162.0
567049.2900137992,-148.0
567049.2977692154,-146.0
567049.3055246315,-148.0
567049.3132800476,-141.0
567049.3210354637,-139.0
567049.3287908798,-150.0
567049.336546296,-146.0
567049.3443017121,-139.0
567049.3520571282,-139.0
567049.3598125443,-143.0
567049.3675679604,-150.0
567049.3753233766,-146.0
567049.3830787927,-136.0
567049.3908342088,-141.0
567049.3985896249,-143.0
567049.406345041,-136.0
567049.4141004572,-146.0
567049.4218558733,-158.0
567049.4296112894,-150.0
567049.4373667055,-146.0
567049.4451221217,-143.0
567049.4528775378,-129.0
567049.4606329539,-112.0
567049.46838837,-107.0
567049.4761437861,-119.0
567049.4838992023,-146.0
567049.4916546184,-158.0
567049.4994100345,-158.0
567049.5071654506,-160.0
567049.5149208667,-162.0
567049.5226762829,-155.0
567049.530431699,-150.0
567049.5381871151,-153.0
567049.5459425312,-158.0
567049.5536979474,-155.0
567049.5614533635,-150.0
567049.5692087796,-148.0
567049.5769641957,-143.0
567049.5847196118,11.0
567049.592475028,436.0
567049.6002304441,733.0
567049.6079858602,340.0
567049.6157412763,-337.0
567049.6234966924,-450.0
567049.6312521086,-208.0
567049.6390075247,-184.0
567049.6467629408,-234.0
567049.6545183569,-191.0
567049.6622737731,-179.0
567049.6700291892,-194.0
567049.6777846053,-179.0
567049.6855400214,-172.0
567049.6932954375,-177.0
567049.7010508537,-162.0
567049.7088062698,-155.0
567049.7165616859,-160.0
567049.724317102,-148.0
567049.7320725181,-136.0
567049.7398279343,-139.0
567049.7475833504,-134.0
567049.7553387665,-117.0
567049.7630941826,-112.0
567049.7708495987,-107.0
567049.7786050149,-95.0
567049.786360431,-86.0
567049.7941158471,-79.0
567049.8018712632,-74.0
567049.8096266794,-59.0
567049.8173820955,-50.0
567049.8251375116,-57.0
567049.8328929277,-69.0
567049.8406483438,-69.0
567049.84840376,-76.0
567049.8561591761,-93.0
567049.8639145922,-98.0
567049.8716700083,-107.0
567049.8794254244,-129.0
567049.8871808406,-141.0
567049.8949362567,-150.0
567049.9026916728,-172.0
567049.9104470889,-186.0
567049.9182025051,-189.0
567049.9259579212,-196.0
567049.9337133373,-206.0
567049.9414687534,-201.0
567049.9492241695,-194.0
567049.9569795857,-194.0
567049.9647350018,-194.0
567049.9724904179,-186.0
567049.980245834,-184.0
567049.9880012501,-177.0
567049.9957566663,-170.0
567050.0035120824,-165.0
567050.0112674985,-167.0
567050.0190229146,-165.0
567050.0267783308,-160.0
567050.0345337469,-158.0
567050.042289163,-155.0
567050.0500445791,-155.0
567050.0577999952,-158.0
567050.0655554114,-158.0
567050.0733108275,-158.0
567050.0810662436,-155.0
567050.0888216597,-158.0
567050.0965770758,-160.0
567050.104332492,-160.0
567050.1120879081,-160.0
567050.1198433242,-160.0
567050.1275987403,-158.0
567050.1353541565,-158.0
567050.1431095726,-162.0
567050.1508649887,-162.0
567050.1586204048,-160.0
567050.1663758209,-158.0
567050.1741312371,-158.0
567050.1818866532,-158.0
567050.1896420693,-160.0
567050.1973974854,-158.0
567050.2051529015,-155.0
567050.2129083177,-155.0
567050.2206637338,-158.0
567050.2284191499,-162.0
567050.236174566,-165.0
567050.2439299821,-165.0
567050.2516853983,-167.0
567050.2594408144,-174.0
567050.2671962305,-167.0
567050.2749516466,-141.0
567050.2827070628,-117.0
567050.2904624789,-127.0
567050.298217895,-153.0
567050.3059733111,-167.0
567050.3137287272,-172.0
567050.3214841434,-177.0
567050.3292395595,-177.0
567050.3369949756,-172.0
567050.3447503917,-172.0
567050.3525058078,-172.0
567050.360261224,-170.0
567050.3680166401,-170.0
567050.3757720562,-167.0
567050.3835274723,-165.0
567050.3912828885,-167.0
567050.3990383046,-153.0
567050.4067937207,45.0
567050.4145491368,498.0
567050.4223045529,795.0
567050.4300599691,433.0
567050.4378153852,-275.0
567050.4455708013,-469.0
567050.4533262174,-225.0
567050.4610816335,-186.0
567050.4688370497,-270.0
567050.4765924658,-222.0
567050.4843478819,-191.0
567050.492103298,-218.0
567050.4998587142,-206.0
567050.5076141303,-184.0
567050.5153695464,-186.0
567050.5231249625,-184.0
567050.5308803786,-174.0
567050.5386357948,-167.0
567050.5463912109,-160.0
567050.554146627,-150.0
567050.5619020431,-141.0
567050.5696574592,-134.0
567050.5774128754,-129.0
567050.5851682915,-119.0
567050.5929237076,-107.0
567050.6006791237,-100.0
567050.6084345398,-88.0
567050.616189956,-79.0
567050.6239453721,-69.0
567050.6317007882,-59.0
567050.6394562043,-57.0
567050.6472116205,-57.0
567050.6549670366,-57.0
567050.6627224527,-64.0
567050.6704778688,-74.0
567050.6782332849,-81.0
567050.6859887011,-91.0
567050.6937441172,-95.0
567050.7014995333,-107.0
567050.7092549494,-119.0
567050.7170103654,-131.0
567050.7247657817,-146.0
567050.7325211978,-158.0
567050.7402766139,-165.0
567050.74803203,-167.0
567050.7557874462,-172.0
567050.7635428623,-172.0
567050.7712982784,-172.0
567050.7790536945,-177.0
567050.7868091105,-174.0
567050.7945645268,-170.0
567050.8023199429,-167.0
567050.810075359,-165.0
567050.817830775,-160.0
567050.8255861911,-158.0
567050.8333416074,-153.0
567050.8410970235,-148.0
567050.8488524396,-143.0
567050.8566078556,-143.0
567050.8643632719,-141.0
567050.872118688,-141.0
567050.879874104,-139.0
567050.8876295201,-141.0
567050.8953849362,-141.0
567050.9031403525,-139.0
567050.9108957686,-136.0
567050.9186511846,-139.0
567050.9264066007,-139.0
567050.9341620168,-136.0
567050.941917433,-139.0
567050.9496728492,-139.0
567050.9574282652,-136.0
567050.9651836813,-134.0
567050.9729390974,-131.0
567050.9806945137,-131.0
567050.9884499297,-131.0
567050.9962053458,-131.0
567051.0039607619,-131.0
567051.0117161782,-131.0
567051.0194715942,-129.0
567051.0272270103,-127.0
567051.0349824264,-124.0
567051.0427378425,-127.0
567051.0504932588,-127.0
567051.0582486748,-129.0
567051.066004091,-136.0
567051.073759507,-136.0
567051.0815149231,-124.0
567051.0892703393,-95.0
567051.0970257554,-74.0
567051.1047811715,-83.0
567051.1125365876,-110.0
567051.1202920038,-122.0
567051.12804742,-127.0
567051.135802836,-134.0
567051.1435582521,-136.0
567051.1513136682,-134.0
567051.1590690844,-134.0
567051.1668245005,-134.0
567051.1745799166,-134.0
567051.1823353327,-134.0
567051.1900907488,-131.0
567051.197846165,-127.0
567051.2056015811,-129.0
567051.2133569972,-112.0
567051.2211124133,98.0
567051.2288678295,553.0
567051.2366232456,814.0
567051.2443786617,405.0
567051.2521340778,-278.0
567051.2598894939,-414.0
567051.2676449101,-172.0
567051.2754003262,-155.0
567051.2831557423,-234.0
567051.2909111584,-189.0
567051.2986665745,-167.0
567051.3064219907,-191.0
567051.3141774068,-179.0
567051.3219328229,-160.0
567051.329688239,-165.0
567051.3374436552,-158.0
567051.3451990713,-146.0
567051.3529544874,-143.0
567051.3607099035,-141.0
567051.3684653196,-136.0
567051.3762207358,-129.0
567051.3839761519,-122.0
567051.391731568,-117.0
567051.3994869841,-107.0
567051.4072424002,-98.0
567051.4149978164,-88.0
567051.4227532325,-76.0
567051.4305086486,-62.0
567051.4382640647,-52.0
567051.4460194808,-47.0
567051.453774897,-43.0
567051.4615303131,-38.0
567051.4692857292,-40.0
567051.4770411453,-45.0
567051.4847965615,-52.0
567051.4925519776,-62.0
567051.5003073937,-69.0
567051.5080628098,-79.0
567051.5158182259,-95.0
567051.5235736421,-110.0
567051.5313290582,-124.0
567051.5390844743,-141.0
567051.5468398904,-155.0
567051.5545953065,-162.0
567051.5623507227,-165.0
567051.5701061388,-167.0
567051.5778615549,-170.0
567051.585616971,-170.0
567051.5933723872,-167.0
567051.6011278033,-165.0
567051.6088832194,-165.0
567051.6166386355,-160.0
567051.6243940516,-155.0
567051.6321494678,-153.0
567051.6399048839,-153.0
567051.6476603,-148.0
567051.6554157161,-141.0
567051.6631711322,-139.0
567051.6709265484,-139.0
567051.6786819645,-139.0
567051.6864373806,-136.0
567051.6941927967,-136.0
567051.7019482129,-131.0
567051.709703629,-129.0
567051.7174590451,-131.0
567051.7252144612,-134.0
567051.7329698773,-134.0
567051.7407252935,-134.0
567051.7484807096,-131.0
567051.7562361257,-129.0
567051.7639915418,-131.0
567051.7717469579,-134.0
567051.7795023741,-131.0
567051.7872577902,-136.0
567051.7950132063,-141.0
567051.8027686224,-139.0
567051.8105240385,-134.0
567051.8182794547,-136.0
567051.8260348708,-141.0
567051.8337902869,-141.0
567051.841545703,-134.0
567051.8493011192,-129.0
567051.8570565353,-129.0
567051.8648119514,-129.0
567051.8725673675,-139.0
567051.8803227836,-148.0
567051.8880781998,-150.0
567051.8958336159,-139.0
567051.903589032,-110.0
567051.9113444481,-86.0
567051.9190998642,-93.0
567051.9268552804,-117.0
567051.9346106965,-129.0
567051.9423661126,-131.0
567051.9501215287,-139.0
567051.9578769449,-146.0
567051.965632361,-148.0
567051.9733877771,-148.0
567051.9811431932,-150.0
567051.9888986093,-150.0
567051.9966540255,-146.0
567052.0044094416,-146.0
567052.0121648577,-148.0
567052.0199202738,-150.0
567052.0276756899,-146.0
567052.0354311061,-9.0
567052.0431865222,393.0
567052.0509419383,766.0
567052.0586973544,536.0
567052.0664527706,-160.0
567052.0742081867,-460.0
567052.0819636028,-244.0
567052.0897190189,-155.0
567052.097474435,-239.0
567052.1052298512,-206.0
567052.1129852673,-162.0
567052.1207406834,-189.0
567052.1284960995,-189.0
567052.1362515156,-167.0
567052.1440069318,-165.0
567052.1517623479,-165.0
567052.159517764,-158.0
567052.1672731801,-153.0
567052.1750285962,-148.0
567052.1827840124,-136.0
567052.1905394285,-124.0
567052.1982948446,-124.0
567052.2060502607,-117.0
567052.2138056769,-103.0
567052.221561093,-93.0
567052.2293165091,-88.0
567052.2370719252,-76.0
567052.2448273413,-69.0
567052.2525827575,-62.0
567052.2603381736,-40.0
567052.2680935897,-38.0
567052.2758490058,-50.0
567052.2836044219,-43.0
567052.2913598381,-40.0
567052.2991152542,-59.0
567052.3068706703,-69.0
567052.3146260864,-71.0
567052.3223815026,-86.0
567052.3301369187,-100.0
567052.3378923348,-117.0
567052.3456477509,-136.0
567052.353403167,-150.0
567052.3611585832,-162.0
567052.3689139993,-174.0
567052.3766694154,-184.0
567052.3844248315,-189.0
567052.3921802476,-194.0
567052.3999356638,-194.0
567052.4076910799,-184.0
567052.415446496,-182.0
567052.4232019121,-186.0
567052.4309573283,-184.0
567052.4387127444,-177.0
567052.4464681605,-172.0
567052.4542235766,-165.0
567052.4619789927,-160.0
567052.4697344089,-155.0
567052.477489825,-153.0
567052.4852452411,-155.0
567052.4930006572,-153.0
567052.5007560733,-153.0
567052.5085114895,-153.0
567052.5162669056,-148.0
567052.5240223217,-150.0
567052.5317777378,-148.0
567052.5395331539,-143.0
567052.5472885701,-148.0
567052.5550439862,-150.0
567052.5627994023,-146.0
567052.5705548184,-143.0
567052.5783102346,-150.0
567052.5860656507,-148.0
567052.5938210668,-146.0
567052.6015764829,-148.0
567052.609331899,-150.0
567052.6170873152,-143.0
567052.6248427313,-139.0
567052.6325981474,-141.0
567052.6403535635,-148.0
567052.6481089796,-146.0
567052.6558643958,-143.0
567052.6636198119,-146.0
567052.671375228,-146.0
567052.6791306441,-143.0
567052.6868860603,-141.0
567052.6946414764,-139.0
567052.7023968925,-129.0
567052.7101523086,-110.0
567052.7179077247,-93.0
567052.7256631409,-93.0
567052.733418557,-115.0
567052.7411739731,-134.0
567052.7489293892,-141.0
567052.7566848053,-143.0
567052.7644402215,-141.0
567052.7721956376,-146.0
567052.7799510537,-148.0
567052.7877064698,-143.0
567052.795461886,-148.0
567052.8032173021,-153.0
567052.8109727182,-150.0
567052.8187281343,-153.0
567052.8264835504,-155.0
567052.8342389666,-146.0
567052.8419943827,19.0
567052.8497497988,452.0
567052.8575052149,740.0
567052.865260631,340.0
567052.8730160472,-337.0
567052.8807714633,-455.0
567052.8885268794,-215.0
567052.8962822955,-191.0
567052.9040377117,-244.0
567052.9117931278,-194.0
567052.9195485439,-182.0
567052.92730396,-203.0
567052.9350593761,-189.0
567052.9428147923,-174.0
567052.9505702084,-174.0
567052.9583256245,-167.0
567052.9660810406,-158.0
567052.9738364567,-153.0
567052.9815918729,-143.0
567052.989347289,-139.0
567052.9971027051,-134.0
567053.0048581212,-122.0
567053.0126135373,-115.0
567053.0203689535,-112.0
567053.0281243696,-105.0
567053.0358797857,-91.0
567053.0436352018,-81.0
567053.051390618,-76.0
567053.0591460341,-67.0
567053.0669014502,-57.0
567053.0746568663,-52.0
567053.0824122824,-55.0
567053.0901676986,-62.0
567053.0979231147,-64.0
567053.1056785308,-67.0
567053.1134339469,-83.0
567053.121189363,-98.0
567053.1289447792,-107.0
567053.1367001953,-122.0
567053.1444556114,-141.0
567053.1522110275,-155.0
567053.1599664437,-172.0
567053.1677218598,-184.0
567053.1754772759,-191.0
567053.183232692,-196.0
567053.190988108,-201.0
567053.1987435243,-201.0
567053.2064989404,-196.0
567053.2142543565,-194.0
567053.2220097726,-194.0
567053.2297651886,-189.0
567053.2375206049,-184.0
567053.245276021,-182.0
567053.253031437,-177.0
567053.2607868531,-172.0
567053.2685422694,-172.0
567053.2762976855,-167.0
567053.2840531016,-162.0
567053.2918085176,-162.0
567053.2995639337,-160.0
567053.30731935,-158.0
567053.315074766,-158.0
567053.3228301822,-165.0
567053.3305855982,-165.0
567053.3383410143,-162.0
567053.3460964306,-162.0
567053.3538518467,-165.0
567053.3616072627,-167.0
567053.3693626788,-167.0
567053.3771180949,-167.0
567053.3848735112,-170.0
567053.3926289272,-167.0
567053.4003843433,-165.0
567053.4081397594,-167.0
567053.4158951757,-167.0
567053.4236505918,-167.0
567053.4314060078,-162.0
567053.439161424,-162.0
567053.44691684,-162.0
567053.4546722563,-162.0
567053.4624276723,-160.0
567053.4701830884,-158.0
567053.4779385045,-155.0
567053.4856939206,-155.0
567053.4934493368,-153.0
567053.501204753,-155.0
567053.508960169,-155.0
567053.5167155851,-158.0
567053.5244710014,-160.0
567053.5322264174,-162.0
567053.5399818335,-148.0
567053.5477372496,-122.0
567053.5554926657,-100.0
567053.563248082,-112.0
567053.571003498,-139.0
567053.5787589141,-148.0
567053.5865143302,-155.0
567053.5942697463,-165.0
567053.6020251625,-167.0
567053.6097805786,-167.0
567053.6175359947,-165.0
567053.6252914108,-167.0
567053.633046827,-170.0
567053.6408022431,-167.0
567053.6485576592,-167.0
567053.6563130753,-162.0
567053.6640684914,-162.0
567053.6718239076,-141.0
567053.6795793237,71.0
567053.6873347398,529.0
567053.6950901559,802.0
567053.702845572,400.0
567053.7106009882,-301.0
567053.7183564043,-460.0
567053.7261118204,-215.0
567053.7338672365,-194.0
567053.7416226526,-270.0
567053.7493780688,-220.0
567053.7571334849,-196.0
567053.764888901,-220.0
567053.7726443171,-208.0
567053.7803997333,-191.0
567053.7881551494,-191.0
567053.7959105655,-186.0
567053.8036659816,-177.0
567053.8114213977,-174.0
567053.8191768139,-170.0
567053.82693223,-165.0
567053.8346876461,-158.0
567053.8424430622,-148.0
567053.8501984783,-139.0
567053.8579538945,-127.0
567053.8657093106,-119.0
567053.8734647267,-112.0
567053.8812201428,-103.0
567053.888975559,-88.0
567053.8967309751,-79.0
567053.9044863912,-76.0
567053.9122418073,-71.0
567053.9199972234,-71.0
567053.9277526396,-71.0
567053.9355080557,-76.0
567053.9432634718,-81.0
567053.9510188879,-88.0
567053.958774304,-95.0
567053.9665297202,-103.0
567053.9742851363,-115.0
567053.9820405524,-127.0
567053.9897959685,-143.0
567053.9975513847,-155.0
567054.0053068008,-167.0
567054.0130622169,-177.0
567054.020817633,-179.0
567054.0285730491,-177.0
567054.0363284653,-177.0
567054.0440838814,-179.0
567054.0518392975,-179.0
567054.0595947136,-174.0
567054.0673501297,-170.0
567054.0751055459,-165.0
567054.082860962,-160.0
567054.0906163781,-158.0
567054.0983717942,-155.0
567054.1061272104,-150.0
567054.1138826265,-148.0
567054.1216380426,-148.0
567054.1293934587,-143.0
567054.1371488748,-141.0
567054.144904291,-139.0
567054.1526597071,-136.0
567054.1604151232,-131.0
567054.1681705393,-134.0
567054.1759259554,-136.0
567054.1836813716,-134.0
567054.1914367877,-131.0
567054.1991922038,-131.0
567054.2069476199,-131.0
567054.214703036,-131.0
567054.2224584522,-131.0
567054.2302138683,-134.0
567054.2379692844,-134.0
567054.2457247005,-131.0
567054.2534801167,-131.0
567054.2612355328,-129.0
567054.2689909489,-127.0
567054.276746365,-127.0
567054.2845017811,-124.0
567054.2922571973,-122.0
567054.3000126134,-119.0
567054.3077680295,-117.0
567054.3155234456,-117.0
567054.3232788617,-117.0
567054.3310342779,-117.0
567054.338789694,-122.0
567054.3465451101,-122.0
567054.3543005262,-117.0
567054.3620559424,-119.0
567054.3698113585,-129.0
567054.3775667746,-134.0
567054.3853221907,-124.0
567054.3930776068,-105.0
567054.400833023,-79.0
567054.4085884391,-69.0
567054.4163438552,-86.0
567054.4240992713,-105.0
567054.4318546874,-115.0
567054.4396101036,-119.0
567054.4473655197,-122.0
567054.4551209358,-122.0
567054.4628763519,-122.0
567054.4706317681,-122.0
567054.4783871842,-122.0
567054.4861426003,-119.0
567054.4938980164,-119.0
567054.5016534325,-117.0
567054.5094088487,-117.0
567054.5171642648,-119.0
567054.5249196809,-47.0
567054.532675097,282.0
567054.5404305131,742.0
567054.5481859293,754.0
567054.5559413454,129.0
567054.5636967615,-400.0
567054.5714521776,-306.0
567054.5792075937,-119.0
567054.5869630099,-186.0
567054.594718426,-213.0
567054.6024738421,-155.0
567054.6102292582,-162.0
567054.6179846744,-179.0
567054.6257400905,-158.0
567054.6334955066,-150.0
567054.6412509227,-150.0
567054.6490063388,-141.0
567054.656761755,-134.0
567054.6645171711,-131.0
567054.6722725872,-124.0
567054.6800280033,-117.0
567054.6877834194,-112.0
567054.6955388356,-103.0
567054.7032942517,-93.0
567054.7110496678,-83.0
567054.7188050839,-76.0
567054.7265605001,-64.0
567054.7343159162,-55.0
567054.7420713323,-47.0
567054.7498267484,-40.0
567054.7575821645,-38.0
567054.7653375807,-33.0
567054.7730929968,-33.0
567054.7808484129,-40.0
567054.788603829,-45.0
567054.7963592451,-50.0
567054.8041146613,-59.0
567054.8118700774,-67.0
567054.8196254935,-76.0
567054.8273809096,-93.0
567054.8351363258,-110.0
567054.8428917419,-129.0
567054.850647158,-143.0
567054.8584025741,-155.0
567054.8661579902,-165.0
567054.8739134064,-170.0
567054.8816688225,-170.0
567054.8894242386,-167.0
567054.8971796547,-167.0
567054.9049350708,-167.0
567054.912690487,-162.0
567054.9204459031,-158.0
567054.9282013192,-155.0
567054.9359567353,-150.0
567054.9437121514,-148.0
567054.9514675676,-146.0
567054.9592229837,-143.0
567054.9669783998,-139.0
567054.9747338159,-134.0
567054.9824892321,-134.0
567054.9902446482,-131.0
567054.9980000643,-129.0
567055.0057554804,-127.0
567055.0135108965,-124.0
567055.0212663127,-127.0
567055.0290217288,-129.0
567055.0367771449,-129.0
567055.044532561,-127.0
567055.0522879771,-127.0
567055.0600433933,-129.0
567055.0677988094,-129.0
567055.0755542255,-127.0
567055.0833096416,-129.0
567055.0910650578,-127.0
567055.0988204739,-127.0
567055.10657589,-127.0
567055.1143313061,-127.0
567055.1220867222,-129.0
567055.1298421384,-131.0
567055.1375975545,-129.0
567055.1453529706,-127.0
567055.1531083867,-127.0
567055.1608638028,-127.0
567055.168619219,-124.0
567055.1763746351,-127.0
567055.1841300512,-127.0
567055.1918854673,-127.0
567055.1996408835,-129.0
567055.2073962996,-131.0
567055.2151517157,-134.0
567055.2229071318,-141.0
567055.2306625479,-134.0
567055.2384179641,-112.0
567055.2461733802,-86.0
567055.2539287963,-79.0
567055.2616842124,-100.0
567055.2694396285,-124.0
567055.2771950447,-134.0
567055.2849504608,-136.0
567055.2927058769,-136.0
567055.300461293,-136.0
567055.3082167092,-139.0
567055.3159721253,-141.0
567055.3237275414,-146.0
567055.3314829575,-143.0
567055.3392383736,-136.0
567055.3469937898,-134.0
567055.3547492059,-136.0
567055.362504622,-148.0
567055.3702600381,-69.0
567055.3780154542,292.0
567055.3857708704,728.0
567055.3935262865,644.0
567055.4012817026,-14.0
567055.4090371187,-443.0
567055.4167925348,-285.0
567055.424547951,-139.0
567055.4323033671,-218.0
567055.4400587832,-218.0
567055.4478141993,-170.0
567055.4555696155,-184.0
567055.4633250316,-189.0
567055.4710804477,-162.0
567055.4788358638,-160.0
567055.4865912799,-162.0
567055.4943466961,-155.0
567055.5021021122,-148.0
567055.5098575283,-146.0
567055.5176129444,-136.0
567055.5253683605,-127.0
567055.5331237767,-119.0
567055.5408791928,-115.0
567055.5486346089,-107.0
567055.556390025,-95.0
567055.5641454412,-83.0
567055.5719008573,-76.0
567055.5796562734,-67.0
567055.5874116895,-57.0
567055.5951671056,-50.0
567055.6029225218,-45.0
567055.6106779379,-45.0
567055.618433354,-50.0
567055.62618877,-55.0
567055.6339441861,-59.0
567055.6416996024,-71.0
567055.6494550185,-79.0
567055.6572104346,-83.0
567055.6649658507,-95.0
567055.6727212669,-107.0
567055.680476683,-124.0
567055.688232099,-141.0
567055.6959875152,-153.0
567055.7037429312,-162.0
567055.7114983475,-167.0
567055.7192537636,-172.0
567055.7270091797,-177.0
567055.7347645957,-179.0
567055.7425200118,-177.0
567055.750275428,-172.0
567055.7580308442,-167.0
567055.7657862603,-162.0
567055.7735416763,-158.0
567055.7812970924,-155.0
567055.7890525087,-153.0
567055.7968079248,-148.0
567055.8045633408,-146.0
567055.812318757,-146.0
567055.8200741732,-141.0
567055.8278295893,-139.0
567055.8355850053,-139.0
567055.8433404214,-131.0
567055.8510958375,-127.0
567055.8588512538,-131.0
567055.8666066698,-136.0
567055.874362086,-136.0
567055.882117502,-141.0
567055.8898729181,-143.0
567055.8976283344,-143.0
567055.9053837504,-141.0
567055.9131391665,-141.0
567055.9208945826,-143.0
567055.9286499989,-141.0
567055.936405415,-139.0
567055.944160831,-136.0
567055.9519162471,-129.0
567055.9596716632,-129.0
567055.9674270794,-136.0
567055.9751824955,-136.0
567055.9829379116,-127.0
567055.9906933277,-127.0
567055.9984487438,-127.0
567056.00620416,-129.0
567056.0139595761,-131.0
567056.0217149922,-131.0
567056.0294704083,-124.0
567056.0372258245,-124.0
567056.0449812406,-124.0
567056.0527366567,-127.0
567056.0604920728,-134.0
567056.0682474889,-127.0
567056.0760029051,-100.0
567056.0837583212,-81.0
567056.0915137373,-91.0
567056.0992691534,-112.0
567056.1070245695,-129.0
567056.1147799857,-134.0
567056.1225354018,-131.0
567056.1302908179,-139.0
567056.138046234,-141.0
567056.1458016501,-136.0
567056.1535570663,-139.0
567056.1613124824,-143.0
567056.1690678985,-143.0
567056.1768233146,-139.0
567056.1845787308,-129.0
567056.1923341469,-129.0
567056.200089563,-127.0
567056.2078449791,28.0
567056.2156003952,450.0
567056.2233558114,759.0
567056.2311112275,393.0
567056.2388666436,-289.0
567056.2466220597,-431.0
567056.2543774758,-194.0
567056.262132892,-165.0
567056.2698883081,-218.0
567056.2776437242,-167.0
567056.2853991403,-160.0
567056.2931545565,-184.0
567056.3009099726,-165.0
567056.3086653887,-150.0
567056.3164208048,-155.0
567056.3241762209,-148.0
567056.3319316371,-146.0
567056.3396870532,-141.0
567056.3474424693,-127.0
567056.3551978854,-122.0
567056.3629533015,-119.0
567056.3707087177,-107.0
567056.3784641338,-103.0
567056.3862195499,-105.0
567056.393974966,-98.0
567056.4017303822,-86.0
567056.4094857983,-71.0
567056.4172412144,-64.0
567056.4249966305,-57.0
567056.4327520466,-47.0
567056.4405074628,-40.0
567056.4482628789,-38.0
567056.456018295,-52.0
567056.4637737111,-67.0
567056.4715291272,-64.0
567056.4792845434,-71.0
567056.4870399595,-86.0
567056.4947953756,-95.0
567056.5025507917,-105.0
567056.5103062079,-119.0
567056.518061624,-136.0
567056.5258170401,-146.0
567056.5335724562,-162.0
567056.5413278723,-177.0
567056.5490832885,-182.0
567056.5568387046,-182.0
567056.5645941207,-184.0
567056.5723495368,-184.0
567056.5801049529,-177.0
567056.5878603691,-179.0
567056.5956157852,-177.0
567056.6033712013,-165.0
567056.6111266174,-170.0
567056.6188820335,-174.0
567056.6266374497,-160.0
567056.6343928658,-153.0
567056.6421482819,-160.0
567056.649903698,-160.0
567056.6576591142,-148.0
567056.6654145303,-139.0
567056.6731699464,-141.0
567056.6809253625,-146.0
567056.6886807786,-143.0
567056.6964361948,-143.0
567056.7041916109,-153.0
567056.711947027,-150.0
567056.7197024431,-134.0
567056.7274578592,-136.0
567056.7352132754,-148.0
567056.7429686915,-153.0
567056.7507241076,-143.0
567056.7584795237,-139.0
567056.7662349399,-148.0
567056.773990356,-150.0
567056.7817457721,-141.0
567056.7895011882,-139.0
567056.7972566043,-141.0
567056.8050120205,-134.0
567056.8127674366,-136.0
567056.8205228527,-146.0
567056.8282782688,-141.0
567056.8360336849,-136.0
567056.8437891011,-139.0
567056.8515445172,-143.0
567056.8592999333,-148.0
567056.8670553494,-150.0
567056.8748107656,-141.0
567056.8825661817,-124.0
567056.8903215978,-110.0
567056.8980770139,-110.0
567056.90583243,-119.0
567056.9135878462,-136.0
567056.9213432623,-150.0
567056.9290986784,-153.0
567056.9368540945,-155.0
567056.9446095106,-158.0
567056.9523649268,-155.0
567056.9601203429,-150.0
567056.967875759,-150.0
567056.9756311751,-153.0
567056.9833865912,-153.0
567056.9911420074,-148.0
567056.9988974235,-148.0
567057.0066528396,-155.0
567057.0144082557,-93.0
567057.0221636719,215.0
567057.029919088,656.0
567057.0376745041,611.0
567057.0454299202,-45.0
567057.0531853363,-479.0
567057.0609407525,-311.0
567057.0686961686,-153.0
567057.0764515847,-218.0
567057.0842070008,-210.0
567057.0919624169,-165.0
567057.0997178331,-186.0
567057.1074732492,-189.0
567057.1152286653,-162.0
567057.1229840814,-158.0
567057.1307394976,-160.0
567057.1384949137,-153.0
567057.1462503298,-143.0
567057.1540057459,-136.0
567057.161761162,-131.0
567057.1695165782,-127.0
567057.1772719943,-119.0
567057.1850274104,-110.0
567057.1927828265,-103.0
567057.2005382426,-93.0
567057.2082936588,-81.0
567057.2160490749,-71.0
567057.223804491,-67.0
567057.2315599071,-57.0
567057.2393153233,-45.0
567057.2470707394,-43.0
567057.2548261555,-45.0
567057.2625815716,-47.0
567057.2703369877,-52.0
567057.2780924039,-62.0
567057.28584782,-74.0
567057.2936032361,-81.0
567057.3013586522,-88.0
567057.3091140683,-103.0
567057.3168694845,-117.0
567057.3246249006,-129.0
567057.3323803167,-143.0
567057.3401357328,-158.0
567057.3478911489,-167.0
567057.3556465651,-174.0
567057.3634019812,-182.0
567057.3711573973,-182.0
567057.3789128134,-179.0
567057.3866682296,-179.0
567057.3944236457,-177.0
567057.4021790618,-177.0
567057.4099344779,-177.0
567057.417689894,-172.0
567057.4254453102,-162.0
567057.4332007263,-158.0
567057.4409561424,-155.0
567057.4487115585,-155.0
567057.4564669746,-153.0
567057.4642223908,-148.0
567057.4719778069,-143.0
567057.479733223,-139.0
567057.4874886391,-139.0
567057.4952440553,-141.0
567057.5029994714,-141.0
567057.5107548875,-141.0
567057.5185103036,-141.0
567057.5262657197,-143.0
567057.5340211359,-141.0
567057.541776552,-141.0
567057.5495319681,-146.0
567057.5572873842,-143.0
567057.5650428003,-139.0
567057.5727982165,-136.0
567057.5805536326,-139.0
567057.5883090487,-141.0
567057.5960644648,-141.0
567057.603819881,-143.0
567057.6115752971,-141.0
567057.6193307132,-141.0
567057.6270861293,-141.0
567057.6348415454,-141.0
567057.6425969616,-141.0
567057.6503523777,-143.0
567057.6581077938,-141.0
567057.6658632099,-141.0
567057.673618626,-139.0
567057.6813740422,-141.0
567057.6891294583,-148.0
567057.6968848744,-150.0
567057.7046402905,-143.0
567057.7123957066,-119.0
567057.7201511228,-95.0
567057.7279065389,-95.0
567057.735661955,-117.0
567057.7434173711,-134.0
567057.7511727873,-139.0
567057.7589282034,-141.0
567057.7666836195,-143.0
567057.7744390356,-143.0
567057.7821944517,-146.0
567057.7899498679,-143.0
567057.797705284,-141.0
567057.8054607001,-139.0
567057.8132161162,-139.0
567057.8209715323,-136.0
567057.8287269485,-136.0
567057.8364823646,-134.0
567057.8442377807,-28.0
567057.8519931968,349.0
567057.859748613,774.0
567057.8675040291,649.0
567057.8752594452,-35.0
567057.8830148613,-452.0
567057.8907702774,-275.0
567057.8985256936,-136.0
567057.9062811097,-222.0
567057.9140365258,-222.0
567057.9217919419,-177.0
567057.929547358,-196.0
567057.9373027742,-196.0
567057.9450581903,-170.0
567057.9528136064,-170.0
567057.9605690225,-172.0
567057.9683244387,-160.0
567057.9760798548,-153.0
567057.9838352709,-150.0
567057.991590687,-141.0
567057.999346103,-134.0
567058.0071015193,-127.0
567058.0148569354,-117.0
567058.0226123515,-107.0
567058.0303677676,-100.0
567058.0381231837,-91.0
567058.0458785999,-79.0
567058.053634016,-71.0
567058.061389432,-62.0
567058.0691448482,-57.0
567058.0769002644,-50.0
567058.0846556805,-50.0
567058.0924110966,-57.0
567058.1001665127,-64.0
567058.1079219287,-74.0
567058.115677345,-81.0
567058.1234327611,-88.0
567058.1311881772,-95.0
567058.1389435933,-103.0
567058.1466990093,-115.0
567058.1544544256,-129.0
567058.1622098417,-141.0
567058.1699652578,-153.0
567058.1777206738,-162.0
567058.18547609,-170.0
567058.1932315062,-174.0
567058.2009869223,-172.0
567058.2087423383,-170.0
567058.2164977544,-170.0
567058.2242531707,-170.0
567058.2320085868,-167.0
567058.2397640029,-162.0
567058.247519419,-160.0
567058.255274835,-158.0
567058.2630302513,-153.0
567058.2707856674,-150.0
567058.2785410834,-153.0
567058.2862964995,-150.0
567058.2940519156,-146.0
567058.3018073319,-143.0
567058.309562748,-143.0
567058.317318164,-141.0
567058.3250735801,-141.0
567058.3328289964,-139.0
567058.3405844124,-141.0
567058.3483398285,-146.0
567058.3560952446,-148.0
567058.3638506607,-146.0
567058.371606077,-146.0
567058.379361493,-146.0
567058.3871169091,-146.0
567058.3948723252,-146.0
567058.4026277413,-143.0
567058.4103831575,-143.0
567058.4181385736,-141.0
567058.4258939897,-146.0
567058.4336494058,-148.0
567058.441404822,-146.0
567058.4491602381,-146.0
567058.4569156542,-148.0
567058.4646710703,-143.0
567058.4724264864,-141.0
567058.4801819026,-143.0
567058.4879373187,-143.0
567058.4956927348,-143.0
567058.5034481509,-143.0
567058.511203567,-143.0
567058.5189589832,-143.0
567058.5267143993,-148.0
567058.5344698154,-155.0
567058.5422252315,-148.0
567058.5499806476,-127.0
567058.5577360638,-103.0
567058.5654914799,-98.0
567058.573246896,-117.0
567058.5810023121,-136.0
567058.5887577283,-143.0
567058.5965131444,-150.0
567058.6042685605,-150.0
567058.6120239766,-150.0
567058.6197793927,-153.0
567058.6275348089,-150.0
567058.635290225,-150.0
567058.6430456411,-150.0
567058.6508010572,-148.0
567058.6585564733,-146.0
567058.6663118895,-146.0
567058.6740673056,-148.0
567058.6818227217,-59.0
567058.6895781378,294.0
567058.697333554,730.0
567058.7050889701,661.0
567058.7128443862,2.0
567058.7205998023,-448.0
567058.7283552184,-304.0
567058.7361106346,-148.0
567058.7438660507,-227.0
567058.7516214668,-234.0
567058.7593768829,-182.0
567058.767132299,-198.0
567058.7748877152,-203.0
567058.7826431313,-179.0
567058.7903985474,-174.0
567058.7981539635,-177.0
567058.8059093797,-167.0
567058.8136647958,-158.0
567058.8214202119,-153.0
567058.829175628,-150.0
567058.8369310441,-143.0
567058.8446864603,-139.0
567058.8524418764,-131.0
567058.8601972925,-122.0
567058.8679527086,-112.0
567058.8757081247,-103.0
567058.8834635409,-91.0
567058.891218957,-81.0
567058.8989743731,-76.0
567058.9067297892,-69.0
567058.9144852053,-62.0
567058.9222406215,-59.0
567058.9299960376,-64.0
567058.9377514537,-71.0
567058.9455068698,-79.0
567058.953262286,-86.0
567058.9610177021,-93.0
567058.9687731182,-98.0
567058.9765285343,-110.0
567058.9842839504,-124.0
567058.9920393666,-141.0
567058.9997947827,-155.0
567059.0075501988,-167.0
567059.0153056149,-174.0
567059.023061031,-177.0
567059.0308164472,-182.0
567059.0385718633,-184.0
567059.0463272794,-184.0
567059.0540826955,-182.0
567059.0618381117,-177.0
567059.0695935278,-174.0
567059.0773489439,-172.0
567059.08510436,-172.0
567059.0928597761,-170.0
567059.1006151923,-167.0
567059.1083706084,-160.0
567059.1161260245,-158.0
567059.1238814406,-155.0
567059.1316368567,-150.0
567059.1393922729,-153.0
567059.147147689,-150.0
567059.1549031051,-148.0
567059.1626585212,-148.0
567059.1704139374,-148.0
567059.1781693535,-150.0
567059.1859247696,-148.0
567059.1936801857,-148.0
567059.2014356018,-148.0
567059.209191018,-148.0
567059.2169464341,-150.0
567059.2247018502,-150.0
567059.2324572663,-148.0
567059.2402126824,-146.0
567059.2479680986,-148.0
567059.2557235147,-146.0
567059.2634789308,-146.0
567059.2712343469,-150.0
567059.2789897631,-153.0
567059.2867451792,-150.0
567059.2945005953,-148.0
567059.3022560114,-150.0
567059.3100114275,-148.0
567059.3177668437,-150.0
567059.3255222598,-148.0
567059.3332776759,-146.0
567059.341033092,-148.0
567059.3487885081,-153.0
567059.3565439243,-155.0
567059.3642993404,-162.0
567059.3720547565,-165.0
567059.3798101726,-158.0
567059.3875655887,-139.0
567059.3953210049,-112.0
567059.403076421,-105.0
567059.4108318371,-122.0
567059.4185872532,-143.0
567059.4263426694,-150.0
567059.4340980855,-158.0
567059.4418535016,-162.0
567059.4496089177,-162.0
567059.4573643338,-165.0
567059.46511975,-165.0
567059.4728751661,-162.0
567059.4806305822,-158.0
567059.4883859983,-155.0
567059.4961414144,-155.0
567059.5038968306,-155.0
567059.5116522467,-160.0
567059.5194076628,-93.0
567059.5271630789,230.0
567059.5349184951,678.0
567059.5426739112,661.0
567059.5504293273,31.0
567059.5581847434,-448.0
567059.5659401595,-318.0
567059.5736955757,-146.0
567059.5814509918,-220.0
567059.5892064079,-234.0
567059.596961824,-182.0
567059.6047172401,-196.0
567059.6124726563,-206.0
567059.6202280724,-182.0
567059.6279834885,-172.0
567059.6357389046,-172.0
567059.6434943208,-170.0
567059.6512497369,-162.0
567059.659005153,-153.0
567059.6667605691,-143.0
567059.6745159852,-136.0
567059.6822714014,-131.0
567059.6900268175,-122.0
567059.6977822336,-117.0
567059.7055376497,-110.0
567059.7132930658,-95.0
567059.721048482,-83.0
567059.7288038981,-74.0
567059.7365593142,-67.0
567059.7443147303,-64.0
567059.7520701464,-55.0
567059.7598255626,-45.0
567059.7675809787,-50.0
567059.7753363948,-62.0
567059.7830918109,-67.0
567059.7908472271,-69.0
567059.7986026432,-74.0
567059.8063580593,-83.0
567059.8141134754,-98.0
567059.8218688915,-115.0
567059.8296243077,-131.0
567059.8373797238,-148.0
567059.8451351399,-162.0
567059.852890556,-172.0
567059.8606459721,-184.0
567059.8684013883,-189.0
567059.8761568044,-186.0
567059.8839122205,-186.0
567059.8916676366,-191.0
567059.8994230528,-186.0
567059.9071784689,-177.0
567059.914933885,-174.0
567059.9226893011,-177.0
567059.9304447172,-177.0
567059.9382001334,-170.0
567059.9459555495,-165.0
567059.9537109656,-165.0
567059.9614663817,-162.0
567059.9692217978,-160.0
567059.976977214,-160.0
567059.9847326301,-158.0
567059.9924880462,-153.0
567060.0002434623,-153.0
567060.0079988785,-148.0
567060.0157542946,-146.0
567060.0235097107,-155.0
567060.0312651268,-162.0
567060.0390205429,-155.0
567060.0467759591,-146.0
567060.0545313752,-143.0
567060.0622867913,-146.0
567060.0700422074,-150.0
567060.0777976235,-148.0
567060.0855530397,-148.0
567060.0933084558,-150.0
567060.1010638719,-150.0
567060.108819288,-146.0
567060.1165747041,-143.0
567060.1243301203,-148.0
567060.1320855364,-146.0
567060.1398409525,-136.0
567060.1475963686,-131.0
567060.1553517848,-143.0
567060.1631072009,-146.0
567060.170862617,-136.0
567060.1786180331,-136.0
567060.1863734492,-143.0
567060.1941288654,-146.0
567060.2018842815,-143.0
567060.2096396976,-129.0
567060.2173951137,-110.0
567060.2251505298,-95.0
567060.232905946,-95.0
567060.2406613621,-112.0
567060.2484167782,-139.0
567060.2561721943,-143.0
567060.2639276105,-136.0
567060.2716830266,-141.0
567060.2794384427,-143.0
567060.2871938588,-150.0
567060.2949492749,-153.0
567060.3027046911,-143.0
567060.3104601072,-136.0
567060.3182155233,-139.0
567060.3259709394,-134.0
567060.3337263555,-136.0
567060.3414817717,-141.0
567060.3492371878,7.0
567060.3569926039,424.0
567060.36474802,728.0
567060.3725034362,371.0
567060.3802588523,-299.0
567060.3880142684,-443.0
567060.3957696845,-198.0
567060.4035251006,-165.0
567060.4112805168,-230.0
567060.4190359329,-186.0
567060.426791349,-165.0
567060.434546765,-194.0
567060.4423021812,-182.0
567060.4500575974,-155.0
567060.4578130135,-160.0
567060.4655684296,-160.0
567060.4733238457,-143.0
567060.4810792619,-127.0
567060.488834678,-127.0
567060.4965900941,-134.0
567060.5043455102,-124.0
567060.5121009263,-107.0
567060.5198563425,-105.0
567060.5276117586,-98.0
567060.5353671747,-83.0
567060.5431225908,-69.0
567060.5508780068,-59.0
567060.5586334231,-50.0
567060.5663888392,-40.0
567060.5741442553,-28.0
567060.5818996713,-28.0
567060.5896550874,-38.0
567060.5974105037,-33.0
567060.6051659198,-33.0
567060.6129213359,-50.0
567060.620676752,-57.0
567060.6284321682,-62.0
567060.6361875843,-81.0
567060.6439430004,-95.0
567060.6516984164,-105.0
567060.6594538325,-129.0
567060.6672092488,-153.0
567060.6749646649,-155.0
567060.682720081,-160.0
567060.690475497,-179.0
567060.6982309131,-184.0
567060.7059863294,-179.0
567060.7137417455,-182.0
567060.7214971615,-179.0
567060.7292525776,-174.0
567060.7370079939,-174.0
567060.74476341,-167.0
567060.752518826,-158.0
567060.7602742421,-158.0
567060.7680296582,-155.0
567060.7757850745,-153.0
567060.7835404905,-150.0
567060.7912959066,-148.0
567060.7990513227,-139.0
567060.8068067388,-136.0
567060.814562155,-143.0
567060.8223175711,-141.0
567060.8300729872,-139.0
567060.8378284033,-141.0
567060.8455838196,-143.0
567060.8533392356,-146.0
567060.8610946517,-148.0
567060.8688500678,-148.0
567060.8766054839,-146.0
567060.8843609001,-146.0
567060.8921163162,-153.0
567060.8998717323,-146.0
567060.9076271484,-141.0
567060.9153825645,-146.0
567060.9231379807,-146.0
567060.9308933968,-143.0
567060.9386488129,-143.0
567060.946404229,-146.0
567060.9541596451,-148.0
567060.9619150613,-146.0
567060.9696704774,-148.0
567060.9774258935,-150.0
567060.9851813096,-146.0
567060.9929367258,-148.0
567061.0006921419,-153.0
567061.008447558,-153.0
567061.0162029741,-155.0
567061.0239583902,-158.0
567061.0317138064,-148.0
567061.0394692225,-124.0
567061.0472246386,-103.0
567061.0549800547,-105.0
567061.0627354708,-131.0
567061.070490887,-148.0
567061.0782463031,-153.0
567061.0860017192,-158.0
567061.0937571353,-160.0
567061.1015125515,-158.0
567061.1092679676,-160.0
567061.1170233837,-160.0
567061.1247787998,-155.0
567061.1325342159,-155.0
567061.1402896321,-153.0
567061.1480450482,-150.0
567061.1558004643,-153.0
567061.1635558804,-146.0
567061.1713112965,23.0
567061.1790667127,455.0
567061.1868221288,752.0
567061.1945775449,383.0
567061.202332961,-294.0
567061.2100883772,-445.0
567061.2178437933,-208.0
567061.2255992094,-177.0
567061.2333546255,-239.0
567061.2411100416,-194.0
567061.2488654578,-172.0
567061.2566208739,-194.0
567061.26437629,-182.0
567061.2721317061,-167.0
567061.2798871222,-172.0
567061.2876425384,-162.0
567061.2953979545,-150.0
567061.3031533706,-148.0
567061.3109087867,-143.0
567061.3186642028,-136.0
567061.326419619,-131.0
567061.3341750351,-127.0
567061.3419304512,-117.0
567061.3496858673,-105.0
567061.3574412835,-98.0
567061.3651966996,-88.0
567061.3729521157,-79.0
567061.3807075318,-67.0
567061.3884629479,-59.0
567061.3962183641,-52.0
567061.4039737802,-50.0
567061.4117291963,-50.0
567061.4194846124,-55.0
567061.4272400285,-59.0
567061.4349954447,-67.0
567061.4427508608,-76.0
567061.4505062769,-86.0
567061.458261693,-103.0
567061.4660171092,-115.0
567061.4737725253,-129.0
567061.4815279414,-143.0
567061.4892833575,-155.0
567061.4970387736,-165.0
567061.5047941898,-174.0
567061.5125496059,-179.0
567061.520305022,-182.0
567061.5280604381,-182.0
567061.5358158542,-182.0
567061.5435712704,-179.0
567061.5513266865,-179.0
567061.5590821026,-174.0
567061.5668375187,-167.0
567061.5745929349,-165.0
567061.582348351,-165.0
567061.5901037671,-165.0
567061.5978591832,-160.0
567061.6056145993,-158.0
567061.6133700155,-150.0
567061.6211254316,-148.0
567061.6288808477,-146.0
567061.6366362638,-143.0
567061.6443916799,-143.0
567061.6521470961,-143.0
567061.6599025122,-143.0
567061.6676579283,-143.0
567061.6754133444,-143.0
567061.6831687606,-146.0
567061.6909241767,-143.0
567061.6986795928,-143.0
567061.7064350089,-143.0
567061.714190425,-143.0
567061.7219458412,-143.0
567061.7297012573,-143.0
567061.7374566734,-143.0
567061.7452120895,-141.0
567061.7529675056,-139.0
567061.7607229218,-136.0
567061.7684783379,-136.0
567061.776233754,-139.0
567061.7839891701,-139.0
567061.7917445862,-134.0
567061.7995000024,-134.0
567061.8072554185,-134.0
567061.8150108346,-134.0
567061.8227662507,-136.0
567061.8305216669,-136.0
567061.838277083,-136.0
567061.8460324991,-136.0
567061.8537879152,-139.0
567061.8615433313,-143.0
567061.8692987475,-148.0
567061.8770541636,-141.0
567061.8848095797,-119.0
567061.8925649958,-93.0
567061.9003204119,-95.0
567061.9080758281,-117.0
567061.9158312442,-134.0
567061.9235866603,-139.0
567061.9313420764,-139.0
567061.9390974926,-141.0
567061.9468529087,-143.0
567061.9546083248,-141.0
567061.9623637409,-141.0
567061.970119157,-146.0
567061.9778745732,-146.0
567061.9856299893,-141.0
567061.9933854054,-139.0
567062.0011408215,-143.0
567062.0088962376,-139.0
567062.0166516538,2.0
567062.0244070699,417.0
567062.032162486,798.0
567062.0399179021,565.0
567062.0476733183,-136.0
567062.0554287344,-448.0
567062.0631841505,-234.0
567062.0709395666,-146.0
567062.0786949827,-234.0
567062.0864503989,-213.0
567062.094205815,-172.0
567062.1019612311,-196.0
567062.1097166472,-191.0
567062.1174720633,-165.0
567062.1252274795,-167.0
567062.1329828956,-170.0
567062.1407383117,-160.0
567062.1484937278,-150.0
567062.1562491439,-148.0
567062.1640045601,-141.0
567062.1717599762,-134.0
567062.1795153923,-124.0
567062.1872708084,-117.0
567062.1950262246,-110.0
567062.2027816407,-100.0
567062.2105370568,-88.0
567062.2182924729,-79.0
567062.226047889,-69.0
567062.2338033052,-57.0
567062.2415587213,-47.0
567062.2493141374,-45.0
567062.2570695535,-40.0
567062.2648249696,-40.0
567062.2725803858,-50.0
567062.2803358019,-59.0
567062.288091218,-62.0
567062.2958466341,-69.0
567062.3036020503,-79.0
567062.3113574664,-91.0
567062.3191128825,-105.0
567062.3268682986,-127.0
567062.3346237147,-141.0
567062.3423791309,-153.0
567062.350134547,-160.0
567062.3578899631,-165.0
567062.3656453792,-167.0
567062.3734007953,-167.0
567062.3811562115,-167.0
567062.3889116276,-170.0
567062.3966670437,-165.0
567062.4044224598,-160.0
567062.412177876,-160.0
567062.4199332921,-155.0
567062.4276887082,-153.0
567062.4354441243,-148.0
567062.4431995404,-146.0
567062.4509549566,-141.0
567062.4587103727,-136.0
567062.4664657888,-134.0
567062.4742212049,-134.0
567062.481976621,-136.0
567062.4897320372,-136.0
567062.4974874533,-134.0
567062.5052428694,-136.0
567062.5129982855,-136.0
567062.5207537016,-134.0
567062.5285091178,-136.0
567062.5362645339,-136.0
567062.54401995,-134.0
567062.5517753661,-134.0
567062.5595307823,-131.0
567062.5672861984,-136.0
567062.5750416145,-139.0
567062.5827970306,-136.0
567062.5905524467,-136.0
567062.5983078629,-136.0
567062.606063279,-134.0
567062.6138186951,-131.0
567062.6215741112,-129.0
567062.6293295273,-131.0
567062.6370849435,-131.0
567062.6448403596,-129.0
567062.6525957757,-129.0
567062.6603511918,-129.0
567062.668106608,-129.0
567062.6758620241,-134.0
567062.6836174402,-134.0
567062.6913728563,-131.0
567062.6991282724,-129.0
567062.7068836886,-131.0
567062.7146391047,-129.0
567062.7223945208,-131.0
567062.7301499369,-141.0
567062.737905353,-146.0
567062.7456607692,-136.0
567062.7534161853,-112.0
567062.7611716014,-88.0
567062.7689270175,-83.0
567062.7766824337,-100.0
567062.7844378498,-117.0
567062.7921932659,-127.0
567062.799948682,-129.0
567062.807704098,-127.0
567062.8154595143,-124.0
567062.8232149304,-129.0
567062.8309703465,-129.0
567062.8387257626,-124.0
567062.8464811787,-124.0
567062.8542365949,-124.0
567062.861992011,-122.0
567062.8697474271,-117.0
567062.8775028432,-119.0
567062.8852582593,-33.0
567062.8930136755,328.0
567062.9007690916,766.0
567062.9085245077,695.0
567062.9162799238,38.0
567062.92403534,-409.0
567062.9317907561,-266.0
567062.9395461722,-112.0
567062.9473015883,-194.0
567062.9550570044,-198.0
567062.9628124206,-146.0
567062.9705678367,-160.0
567062.9783232528,-170.0
567062.9860786689,-148.0
567062.993834085,-146.0
567063.0015895012,-146.0
567063.0093449173,-134.0
567063.0171003334,-127.0
567063.0248557494,-124.0
567063.0326111657,-117.0
567063.0403665818,-107.0
567063.0481219979,-100.0
567063.055877414,-93.0
567063.06363283,-83.0
567063.0713882463,-74.0
567063.0791436624,-69.0
567063.0868990785,-59.0
567063.0946544945,-47.0
567063.1024099106,-35.0
567063.1101653269,-26.0
567063.117920743,-19.0
567063.125676159,-19.0
567063.1334315751,-23.0
567063.1411869914,-23.0
567063.1489424075,-28.0
567063.1566978235,-35.0
567063.1644532396,-43.0
567063.1722086557,-50.0
567063.179964072,-64.0
567063.187719488,-79.0
567063.1954749041,-95.0
567063.2032303202,-107.0
567063.2109857363,-119.0
567063.2187411526,-131.0
567063.2264965686,-139.0
567063.2342519847,-141.0
567063.2420074008,-143.0
567063.249762817,-146.0
567063.2575182331,-146.0
567063.2652736492,-143.0
567063.2730290653,-146.0
567063.2807844814,-143.0
567063.2885398977,-136.0
567063.2962953137,-134.0
567063.3040507298,-134.0
567063.3118061459,-129.0
567063.319561562,-127.0
567063.3273169782,-127.0
567063.3350723943,-122.0
567063.3428278104,-117.0
567063.3505832265,-117.0
567063.3583386426,-115.0
567063.3660940588,-115.0
567063.3738494749,-112.0
567063.381604891,-112.0
567063.3893603071,-115.0
567063.3971157233,-117.0
567063.4048711394,-117.0
567063.4126265555,-117.0
567063.4203819716,-117.0
567063.4281373877,-115.0
567063.435892804,-117.0
567063.44364822,-117.0
567063.4514036361,-117.0
567063.4591590522,-117.0
567063.4669144683,-115.0
567063.4746698845,-112.0
567063.4824253006,-112.0
567063.4901807167,-115.0
567063.4979361328,-122.0
567063.505691549,-122.0
567063.5134469651,-119.0
567063.5212023812,-117.0
567063.5289577973,-119.0
567063.5367132134,-119.0
567063.5444686296,-124.0
567063.5522240457,-124.0
567063.5599794618,-122.0
567063.5677348779,-127.0
567063.575490294,-131.0
567063.5832457102,-127.0
567063.5910011263,-124.0
567063.5987565424,-127.0
567063.6065119585,-131.0
567063.6142673747,-136.0
567063.6220227908,-131.0
567063.6297782069,-117.0
567063.637533623,-93.0
567063.6452890391,-76.0
567063.6530444553,-86.0
567063.6607998714,-105.0
567063.6685552875,-119.0
567063.6763107036,-129.0
567063.6840661197,-131.0
567063.6918215359,-122.0
567063.699576952,-119.0
567063.7073323681,-124.0
567063.7150877842,-127.0
567063.7228432003,-124.0
567063.7305986165,-119.0
567063.7383540326,-122.0
567063.7461094487,-117.0
567063.7538648648,-119.0
567063.761620281,-95.0
567063.7693756971,150.0
567063.7771311132,620.0
567063.7848865293,786.0
567063.7926419454,278.0
567063.8003973616,-337.0
567063.8081527777,-359.0
567063.8159081938,-139.0
567063.8236636099,-170.0
567063.831419026,-220.0
567063.8391744422,-165.0
567063.8469298583,-158.0
567063.8546852744,-182.0
567063.8624406905,-165.0
567063.8701961067,-146.0
567063.8779515228,-150.0
567063.8857069389,-146.0
567063.893462355,-136.0
567063.9012177711,-134.0
567063.9089731873,-131.0
567063.9167286034,-122.0
567063.9244840195,-107.0
567063.9322394356,-100.0
567063.9399948517,-100.0
567063.9477502679,-86.0
567063.955505684,-74.0
567063.9632611001,-76.0
567063.9710165162,-64.0
567063.9787719324,-40.0
567063.9865273485,-35.0
567063.9942827646,-35.0
567064.0020381807,-33.0
567064.0097935968,-38.0
567064.017549013,-43.0
567064.0253044291,-45.0
567064.0330598452,-50.0
567064.0408152613,-59.0
567064.0485706774,-67.0
567064.0563260936,-86.0
567064.0640815097,-100.0
567064.0718369258,-110.0
567064.0795923419,-129.0
567064.087347758,-146.0
567064.0951031742,-150.0
567064.1028585903,-162.0
567064.1106140064,-174.0
567064.1183694225,-177.0
567064.1261248387,-170.0
567064.1338802548,-170.0
567064.1416356709,-170.0
567064.149391087,-162.0
567064.1571465031,-160.0
567064.1649019193,-165.0
567064.1726573354,-160.0
567064.1804127515,-150.0
567064.1881681676,-148.0
567064.1959235837,-148.0
567064.2036789999,-143.0
567064.211434416,-139.0
567064.2191898321,-139.0
567064.2269452482,-134.0
567064.2347006644,-131.0
567064.2424560805,-131.0
567064.2502114966,-134.0
567064.2579669127,-134.0
567064.2657223288,-131.0
567064.273477745,-131.0
567064.2812331611,-134.0
567064.2889885772,-131.0
567064.2967439933,-129.0
567064.3044994094,-134.0
567064.3122548256,-136.0
567064.3200102417,-136.0
567064.3277656578,-139.0
567064.3355210739,-143.0
567064.3432764901,-143.0
567064.3510319062,-136.0
567064.3587873223,-131.0
567064.3665427384,-139.0
567064.3742981545,-143.0
567064.3820535707,-141.0
567064.3898089868,-139.0
567064.3975644029,-148.0
567064.405319819,-155.0
567064.4130752351,-150.0
567064.4208306513,-143.0
567064.4285860674,-143.0
567064.4363414835,-143.0
567064.4440968996,-141.0
567064.4518523158,-136.0
567064.4596077319,-143.0
567064.467363148,-158.0
567064.4751185641,-158.0
567064.4828739802,-141.0
567064.4906293964,-124.0
567064.4983848125,-103.0
567064.5061402286,-91.0
567064.5138956447,-103.0
567064.5216510608,-129.0
567064.529406477,-146.0
567064.5371618931,-153.0
567064.5449173092,-153.0
567064.5526727253,-148.0
567064.5604281414,-148.0
567064.5681835576,-148.0
567064.5759389737,-143.0
567064.5836943898,-148.0
567064.5914498059,-155.0
567064.5992052221,-143.0
567064.6069606382,-139.0
567064.6147160543,-148.0
567064.6224714704,-100.0
567064.6302268865,194.0
567064.6379823027,647.0
567064.6457377188,656.0
567064.6534931349,26.0
567064.661248551,-450.0
567064.6690039671,-321.0
567064.6767593833,-155.0
567064.6845147994,-210.0
567064.6922702155,-208.0
567064.7000256316,-155.0
567064.7077810478,-174.0
567064.7155364639,-189.0
567064.72329188,-160.0
567064.7310472961,-153.0
567064.7388027122,-158.0
567064.7465581284,-143.0
567064.7543135445,-131.0
567064.7620689606,-131.0
567064.7698243767,-129.0
567064.7775797928,-119.0
567064.785335209,-110.0
567064.7930906251,-107.0
567064.8008460412,-103.0
567064.8086014573,-95.0
567064.8163568735,-81.0
567064.8241122896,-67.0
567064.8318677057,-57.0
567064.8396231218,-47.0
567064.8473785379,-38.0
567064.8551339541,-35.0
567064.8628893702,-33.0
567064.8706447863,-33.0
567064.8784002024,-38.0
567064.8861556185,-43.0
567064.8939110347,-55.0
567064.9016664508,-69.0
567064.9094218669,-76.0
567064.917177283,-86.0
567064.9249326991,-105.0
567064.9326881153,-124.0
567064.9404435314,-146.0
567064.9481989475,-162.0
567064.9559543636,-172.0
567064.9637097798,-184.0
567064.9714651959,-191.0
567064.979220612,-189.0
567064.9869760281,-189.0
567064.9947314442,-191.0
567065.0024868604,-189.0
567065.0102422765,-184.0
567065.0179976926,-186.0
567065.0257531087,-186.0
567065.0335085248,-179.0
567065.041263941,-174.0
567065.0490193571,-177.0
567065.0567747732,-170.0
567065.0645301893,-165.0
567065.0722856055,-165.0
567065.0800410216,-165.0
567065.0877964377,-158.0
567065.0955518538,-155.0
567065.1033072699,-158.0
567065.1110626861,-155.0
567065.1188181022,-153.0
567065.1265735183,-155.0
567065.1343289344,-158.0
567065.1420843505,-158.0
567065.1498397667,-162.0
567065.1575951828,-160.0
567065.1653505989,-158.0
567065.173106015,-162.0
567065.1808614312,-167.0
567065.1886168473,-165.0
567065.1963722634,-162.0
567065.2041276795,-160.0
567065.2118830956,-162.0
567065.2196385118,-167.0
567065.2273939279,-165.0
567065.235149344,-162.0
567065.2429047601,-160.0
567065.2506601762,-160.0
567065.2584155924,-158.0
567065.2661710085,-160.0
567065.2739264246,-162.0
567065.2816818407,-158.0
567065.2894372568,-155.0
567065.297192673,-155.0
567065.3049480891,-155.0
567065.3127035052,-160.0
567065.3204589213,-165.0
567065.3282143375,-162.0
567065.3359697536,-150.0
567065.3437251697,-127.0
567065.3514805858,-105.0
567065.3592360019,-107.0
567065.3669914181,-129.0
567065.3747468342,-146.0
567065.3825022503,-150.0
567065.3902576664,-153.0
567065.3980130824,-150.0
567065.4057684987,-153.0
567065.4135239148,-155.0
567065.4212793309,-153.0
567065.429034747,-148.0
567065.4367901632,-148.0
567065.4445455793,-150.0
567065.4523009954,-148.0
567065.4600564115,-146.0
567065.4678118275,-143.0
567065.4755672438,0.0
567065.4833226599,421.0
567065.491078076,790.0
567065.498833492,517.0
567065.5065889081,-189.0
567065.5143443244,-457.0
567065.5220997405,-234.0
567065.5298551566,-162.0
567065.5376105726,-249.0
567065.5453659889,-222.0
567065.553121405,-189.0
567065.560876821,-210.0
567065.5686322371,-203.0
567065.5763876532,-182.0
567065.5841430695,-186.0
567065.5918984856,-184.0
567065.5996539016,-170.0
567065.6074093177,-162.0
567065.6151647338,-160.0
567065.62292015,-150.0
567065.6306755661,-141.0
567065.6384309822,-134.0
567065.6461863983,-124.0
567065.6539418146,-112.0
567065.6616972307,-103.0
567065.6694526467,-93.0
567065.6772080628,-81.0
567065.6849634789,-71.0
567065.6927188952,-64.0
567065.7004743112,-57.0
567065.7082297273,-52.0
567065.7159851434,-52.0
567065.7237405595,-55.0
567065.7314959757,-59.0
567065.7392513918,-67.0
567065.747006808,-74.0
567065.754762224,-83.0
567065.7625176401,-95.0
567065.7702730563,-103.0
567065.7780284724,-115.0
567065.7857838885,-129.0
567065.7935393046,-143.0
567065.8012947208,-155.0
567065.809050137,-165.0
567065.816805553,-172.0
567065.8245609691,-174.0
567065.8323163852,-177.0
567065.8400718014,-174.0
567065.8478272175,-172.0
567065.8555826336,-172.0
567065.8633380497,-172.0
567065.8710934658,-167.0
567065.878848882,-162.0
567065.8866042981,-155.0
567065.8943597142,-150.0
567065.9021151303,-150.0
567065.9098705465,-146.0
567065.9176259626,-143.0
567065.9253813787,-141.0
567065.9331367948,-139.0
567065.9408922109,-136.0
567065.9486476271,-136.0
567065.9564030432,-136.0
567065.9641584593,-136.0
567065.9719138754,-136.0
567065.9796692915,-136.0
567065.9874247077,-136.0
567065.9951801238,-141.0
567066.0029355399,-143.0
567066.010690956,-143.0
567066.0184463722,-143.0
567066.0262017883,-143.0
567066.0339572044,-146.0
567066.0417126205,-150.0
567066.0494680366,-155.0
567066.0572234528,-158.0
567066.0649788689,-158.0
567066.072734285,-155.0
567066.0804897011,-158.0
567066.0882451172,-158.0
567066.0960005334,-155.0
567066.1037559495,-155.0
567066.1115113656,-158.0
567066.1192667817,-158.0
567066.1270221978,-153.0
567066.134777614,-150.0
567066.1425330301,-150.0
567066.1502884462,-148.0
567066.1580438623,-148.0
567066.1657992785,-146.0
567066.1735546946,-146.0
567066.1813101107,-143.0
567066.1890655268,-148.0
567066.1968209429,-153.0
567066.2045763591,-150.0
567066.2123317752,-127.0
567066.2200871913,-100.0
567066.2278426074,-91.0
567066.2355980235,-107.0
567066.2433534397,-127.0
567066.2511088558,-134.0
567066.2588642719,-139.0
567066.266619688,-139.0
567066.2743751042,-139.0
567066.2821305203,-139.0
567066.2898859364,-136.0
567066.2976413525,-136.0
567066.3053967686,-139.0
567066.3131521848,-139.0
567066.3209076009,-136.0
567066.328663017,-134.0
567066.3364184331,-139.0
